X [s]	1 Gast Med [V]	2 T Ant [V]	3 R Fem [V]	4 B Fem [V]	
21.860000	2.509634e-06	4.052083e-05	5.207517e-06	3.864139e-06	
21.861001	2.587851e-06	4.134576e-05	5.210835e-06	3.937688e-06	
21.862002	2.668484e-06	4.215241e-05	5.218080e-06	4.012006e-06	
21.863003	2.751175e-06	4.293908e-05	5.229398e-06	4.086773e-06	
21.864004	2.835570e-06	4.370407e-05	5.244939e-06	4.161670e-06	
21.865004	2.921311e-06	4.444569e-05	5.264849e-06	4.236377e-06	
21.866005	3.008044e-06	4.516222e-05	5.289276e-06	4.310577e-06	
21.867006	3.095412e-06	4.585198e-05	5.318367e-06	4.383950e-06	
21.868007	3.183060e-06	4.651327e-05	5.352272e-06	4.456177e-06	
21.869008	3.270632e-06	4.714438e-05	5.391136e-06	4.526938e-06	
21.870009	3.357772e-06	4.774363e-05	5.435109e-06	4.595916e-06	
21.871010	3.444125e-06	4.830930e-05	5.484337e-06	4.662791e-06	
21.872011	3.529333e-06	4.883971e-05	5.538968e-06	4.727244e-06	
21.873011	3.613043e-06	4.933315e-05	5.599150e-06	4.788955e-06	
21.874012	3.694897e-06	4.978792e-05	5.665031e-06	4.847607e-06	
21.875013	3.774548e-06	5.020239e-05	5.736748e-06	4.902889e-06	
21.876014	3.851823e-06	5.057614e-05	5.814237e-06	4.954690e-06	
21.877015	3.926722e-06	5.090996e-05	5.897233e-06	5.003094e-06	
21.878016	3.999252e-06	5.120471e-05	5.985460e-06	5.048193e-06	
21.879017	4.069419e-06	5.146122e-05	6.078646e-06	5.090080e-06	
21.880018	4.137230e-06	5.168035e-05	6.176517e-06	5.128847e-06	
21.881018	4.202691e-06	5.186293e-05	6.278799e-06	5.164585e-06	
21.882019	4.265810e-06	5.200982e-05	6.385218e-06	5.197388e-06	
21.883020	4.326592e-06	5.212186e-05	6.495500e-06	5.227348e-06	
21.884021	4.385044e-06	5.219989e-05	6.609372e-06	5.254556e-06	
21.885022	4.441174e-06	5.224476e-05	6.726560e-06	5.279105e-06	
21.886023	4.494987e-06	5.225732e-05	6.846790e-06	5.301087e-06	
21.887024	4.546491e-06	5.223841e-05	6.969789e-06	5.320595e-06	
21.888025	4.595692e-06	5.218888e-05	7.095282e-06	5.337720e-06	
21.889025	4.642596e-06	5.210957e-05	7.222996e-06	5.352555e-06	
21.890026	4.687210e-06	5.200133e-05	7.352657e-06	5.365191e-06	
21.891027	4.729542e-06	5.186501e-05	7.483992e-06	5.375723e-06	
21.892028	4.769597e-06	5.170144e-05	7.616725e-06	5.384240e-06	
21.893029	4.807382e-06	5.151148e-05	7.750585e-06	5.390837e-06	
21.894030	4.842904e-06	5.129597e-05	7.885297e-06	5.395604e-06	
21.895031	4.876169e-06	5.105575e-05	8.020587e-06	5.398634e-06	
21.896032	4.907185e-06	5.079168e-05	8.156181e-06	5.400020e-06	
21.897032	4.935957e-06	5.050460e-05	8.291807e-06	5.399853e-06	
21.898033	4.962493e-06	5.019535e-05	8.427189e-06	5.398227e-06	
21.899034	4.986798e-06	4.986477e-05	8.562054e-06	5.395232e-06	
21.900035	5.008881e-06	4.951373e-05	8.696129e-06	5.390961e-06	
21.901036	5.028746e-06	4.914305e-05	8.829139e-06	5.385507e-06	
21.902037	5.046402e-06	4.875358e-05	8.960811e-06	5.378962e-06	
21.903038	5.061854e-06	4.834618e-05	9.090872e-06	5.371418e-06	
21.904039	5.075110e-06	4.792169e-05	9.219046e-06	5.362966e-06	
21.905040	5.086175e-06	4.748094e-05	9.345062e-06	5.353700e-06	
21.906040	5.095057e-06	4.702480e-05	9.468644e-06	5.343712e-06	
21.907041	5.101763e-06	4.655409e-05	9.589519e-06	5.333094e-06	
21.908042	5.106298e-06	4.606968e-05	9.707413e-06	5.321937e-06	
21.909043	5.108669e-06	4.557240e-05	9.822053e-06	5.310335e-06	
21.910044	5.108884e-06	4.506310e-05	9.933164e-06	5.298380e-06	
21.911045	5.106948e-06	4.454262e-05	1.004047e-05	5.286163e-06	
21.912046	5.102869e-06	4.401182e-05	1.014371e-05	5.273777e-06	
21.913047	5.096653e-06	4.347153e-05	1.024259e-05	5.261314e-06	
21.914047	5.088306e-06	4.292261e-05	1.033685e-05	5.248866e-06	
21.915048	5.077836e-06	4.236589e-05	1.042622e-05	5.236527e-06	
21.916049	5.065249e-06	4.180223e-05	1.051041e-05	5.224387e-06	
21.917050	5.050551e-06	4.123247e-05	1.058916e-05	5.212539e-06	
21.918051	5.033750e-06	4.065745e-05	1.066219e-05	5.201075e-06	
21.919052	5.014851e-06	4.007802e-05	1.072922e-05	5.190088e-06	
21.920053	4.993862e-06	3.949502e-05	1.079000e-05	5.179670e-06	
21.921054	4.970790e-06	3.890931e-05	1.084423e-05	5.169912e-06	
21.922054	4.945640e-06	3.832173e-05	1.089165e-05	5.160908e-06	
21.923055	4.918419e-06	3.773311e-05	1.093198e-05	5.152749e-06	
21.924056	4.889135e-06	3.714432e-05	1.096495e-05	5.145528e-06	
21.925057	4.857797e-06	3.655617e-05	1.099030e-05	5.139332e-06	
21.926058	4.824474e-06	3.596920e-05	1.100801e-05	5.134169e-06	
21.927059	4.789289e-06	3.538369e-05	1.101828e-05	5.129976e-06	
21.928060	4.752366e-06	3.479989e-05	1.102131e-05	5.126689e-06	
21.929061	4.713828e-06	3.421808e-05	1.101731e-05	5.124241e-06	
21.930061	4.673798e-06	3.363852e-05	1.100649e-05	5.122568e-06	
21.931062	4.632402e-06	3.306148e-05	1.098904e-05	5.121605e-06	
21.932063	4.589761e-06	3.248721e-05	1.096517e-05	5.121287e-06	
21.933064	4.546000e-06	3.191600e-05	1.093508e-05	5.121548e-06	
21.934065	4.501244e-06	3.134809e-05	1.089898e-05	5.122324e-06	
21.935066	4.455614e-06	3.078376e-05	1.085707e-05	5.123549e-06	
21.936067	4.409236e-06	3.022327e-05	1.080956e-05	5.125159e-06	
21.937068	4.362232e-06	2.966689e-05	1.075666e-05	5.127088e-06	
21.938068	4.314727e-06	2.911488e-05	1.069855e-05	5.129271e-06	
21.939069	4.266844e-06	2.856751e-05	1.063546e-05	5.131643e-06	
21.940070	4.218708e-06	2.802504e-05	1.056757e-05	5.134140e-06	
21.941071	4.170441e-06	2.748774e-05	1.049511e-05	5.136695e-06	
21.942072	4.122167e-06	2.695587e-05	1.041827e-05	5.139244e-06	
21.943073	4.074010e-06	2.642970e-05	1.033725e-05	5.141721e-06	
21.944074	4.026095e-06	2.590949e-05	1.025226e-05	5.144062e-06	
21.945075	3.978543e-06	2.539552e-05	1.016351e-05	5.146202e-06	
21.946076	3.931480e-06	2.488804e-05	1.007119e-05	5.148076e-06	
21.947076	3.885029e-06	2.438731e-05	9.975515e-06	5.149617e-06	
21.948077	3.839314e-06	2.389362e-05	9.876686e-06	5.150762e-06	
21.949078	3.794458e-06	2.340721e-05	9.774908e-06	5.151445e-06	
21.950079	3.750585e-06	2.292836e-05	9.670385e-06	5.151601e-06	
21.951080	3.707819e-06	2.245733e-05	9.563320e-06	5.151166e-06	
21.952081	3.666283e-06	2.199438e-05	9.453918e-06	5.150073e-06	
21.953082	3.626102e-06	2.153979e-05	9.342382e-06	5.148258e-06	
21.954083	3.587398e-06	2.109382e-05	9.228918e-06	5.145655e-06	
21.955083	3.550296e-06	2.065672e-05	9.113729e-06	5.142201e-06	
21.956084	3.514920e-06	2.022878e-05	8.997019e-06	5.137828e-06	
21.957085	3.481392e-06	1.981024e-05	8.878993e-06	5.132474e-06	
21.958086	3.449838e-06	1.940138e-05	8.759854e-06	5.126071e-06	
21.959087	3.420379e-06	1.900247e-05	8.639807e-06	5.118556e-06	
21.960088	3.393141e-06	1.861377e-05	8.519056e-06	5.109863e-06	
21.961089	3.368247e-06	1.823554e-05	8.397804e-06	5.099928e-06	
21.962090	3.345821e-06	1.786804e-05	8.276257e-06	5.088684e-06	
21.963090	3.325986e-06	1.751155e-05	8.154618e-06	5.076067e-06	
21.964091	3.308866e-06	1.716634e-05	8.033092e-06	5.062012e-06	
21.965092	3.294584e-06	1.683265e-05	7.911881e-06	5.046454e-06	
21.966093	3.283265e-06	1.651077e-05	7.791192e-06	5.029327e-06	
21.967094	3.275033e-06	1.620095e-05	7.671228e-06	5.010567e-06	
21.968095	3.270010e-06	1.590346e-05	7.552192e-06	4.990109e-06	
21.969096	3.268321e-06	1.561857e-05	7.434289e-06	4.967887e-06	
21.970097	3.270089e-06	1.534654e-05	7.317724e-06	4.943836e-06	
21.971097	3.275438e-06	1.508763e-05	7.202700e-06	4.917891e-06	
21.972098	3.284492e-06	1.484212e-05	7.089421e-06	4.889987e-06	
21.973099	3.297374e-06	1.461027e-05	6.978092e-06	4.860060e-06	
21.974100	3.314209e-06	1.439233e-05	6.868917e-06	4.828043e-06	
21.975101	3.335110e-06	1.418856e-05	6.762091e-06	4.793878e-06	
21.976102	3.360041e-06	1.399886e-05	6.657681e-06	4.757584e-06	
21.977103	3.388854e-06	1.382287e-05	6.555649e-06	4.719246e-06	
21.978104	3.421393e-06	1.366020e-05	6.455959e-06	4.678949e-06	
21.979104	3.457506e-06	1.351050e-05	6.358572e-06	4.636778e-06	
21.980105	3.497038e-06	1.337340e-05	6.263449e-06	4.592818e-06	
21.981106	3.539836e-06	1.324851e-05	6.170553e-06	4.547155e-06	
21.982107	3.585746e-06	1.313548e-05	6.079845e-06	4.499873e-06	
21.983108	3.634614e-06	1.303394e-05	5.991288e-06	4.451059e-06	
21.984109	3.686287e-06	1.294350e-05	5.904842e-06	4.400797e-06	
21.985110	3.740610e-06	1.286381e-05	5.820469e-06	4.349172e-06	
21.986111	3.797431e-06	1.279449e-05	5.738132e-06	4.296270e-06	
21.987112	3.856595e-06	1.273517e-05	5.657792e-06	4.242176e-06	
21.988112	3.917950e-06	1.268548e-05	5.579411e-06	4.186976e-06	
21.989113	3.981340e-06	1.264506e-05	5.502951e-06	4.130754e-06	
21.990114	4.046612e-06	1.261352e-05	5.428373e-06	4.073595e-06	
21.991115	4.113613e-06	1.259051e-05	5.355639e-06	4.015586e-06	
21.992116	4.182189e-06	1.257565e-05	5.284712e-06	3.956811e-06	
21.993117	4.252186e-06	1.256856e-05	5.215552e-06	3.897356e-06	
21.994118	4.323451e-06	1.256889e-05	5.148121e-06	3.837305e-06	
21.995119	4.395829e-06	1.257626e-05	5.082382e-06	3.776744e-06	
21.996119	4.469168e-06	1.259030e-05	5.018295e-06	3.715759e-06	
21.997120	4.543312e-06	1.261063e-05	4.955824e-06	3.654434e-06	
21.998121	4.618110e-06	1.263690e-05	4.894929e-06	3.592855e-06	
21.999122	4.693406e-06	1.266873e-05	4.835573e-06	3.531107e-06	
22.000123	4.769047e-06	1.270574e-05	4.777716e-06	3.469275e-06	
22.001124	4.844880e-06	1.274758e-05	4.721322e-06	3.407444e-06	
22.002125	4.920751e-06	1.279386e-05	4.666351e-06	3.345701e-06	
22.003126	4.996505e-06	1.284422e-05	4.612765e-06	3.284129e-06	
22.004126	5.071990e-06	1.289829e-05	4.560527e-06	3.222815e-06	
22.005127	5.147052e-06	1.295569e-05	4.509598e-06	3.161843e-06	
22.006128	5.221537e-06	1.301607e-05	4.459939e-06	3.101298e-06	
22.007129	5.295290e-06	1.307904e-05	4.411513e-06	3.041267e-06	
22.008130	5.368159e-06	1.314424e-05	4.364281e-06	2.981834e-06	
22.009131	5.439990e-06	1.321129e-05	4.318206e-06	2.923085e-06	
22.010132	5.510629e-06	1.327984e-05	4.273248e-06	2.865104e-06	
22.011133	5.579923e-06	1.334950e-05	4.229369e-06	2.807977e-06	
22.012133	5.647716e-06	1.341990e-05	4.186532e-06	2.751789e-06	
22.013134	5.713857e-06	1.349068e-05	4.144698e-06	2.696626e-06	
22.014135	5.778191e-06	1.356147e-05	4.103829e-06	2.642573e-06	
22.015136	5.840565e-06	1.363189e-05	4.063887e-06	2.589715e-06	
22.016137	5.900824e-06	1.370158e-05	4.024833e-06	2.538136e-06	
22.017138	5.958815e-06	1.377016e-05	3.986629e-06	2.487924e-06	
22.018139	6.014385e-06	1.383727e-05	3.949237e-06	2.439161e-06	
22.019140	6.067379e-06	1.390253e-05	3.912619e-06	2.391935e-06	
22.020140	6.117644e-06	1.396558e-05	3.876737e-06	2.346330e-06	
22.021141	6.165026e-06	1.402604e-05	3.841552e-06	2.302432e-06	
22.022142	6.209372e-06	1.408355e-05	3.807025e-06	2.260325e-06	
22.023143	6.250528e-06	1.413773e-05	3.773120e-06	2.220095e-06	
22.024144	6.288339e-06	1.418821e-05	3.739797e-06	2.181828e-06	
22.025145	6.322664e-06	1.423465e-05	3.707020e-06	2.145602e-06	
22.026146	6.353496e-06	1.427698e-05	3.674775e-06	2.111421e-06	
22.027147	6.380925e-06	1.431531e-05	3.643061e-06	2.079238e-06	
22.028147	6.405043e-06	1.434979e-05	3.611880e-06	2.049002e-06	
22.029148	6.425941e-06	1.438054e-05	3.581231e-06	2.020664e-06	
22.030149	6.443712e-06	1.440768e-05	3.551117e-06	1.994174e-06	
22.031150	6.458446e-06	1.443136e-05	3.521538e-06	1.969484e-06	
22.032151	6.470235e-06	1.445168e-05	3.492494e-06	1.946543e-06	
22.033152	6.479171e-06	1.446880e-05	3.463986e-06	1.925302e-06	
22.034153	6.485345e-06	1.448283e-05	3.436015e-06	1.905711e-06	
22.035154	6.488849e-06	1.449390e-05	3.408581e-06	1.887722e-06	
22.036155	6.489775e-06	1.450214e-05	3.381686e-06	1.871284e-06	
22.037155	6.488215e-06	1.450769e-05	3.355330e-06	1.856349e-06	
22.038156	6.484259e-06	1.451066e-05	3.329514e-06	1.842866e-06	
22.039157	6.478000e-06	1.451120e-05	3.304238e-06	1.830786e-06	
22.040158	6.469529e-06	1.450942e-05	3.279503e-06	1.820059e-06	
22.041159	6.458938e-06	1.450546e-05	3.255310e-06	1.810637e-06	
22.042160	6.446318e-06	1.449944e-05	3.231660e-06	1.802469e-06	
22.043161	6.431761e-06	1.449151e-05	3.208553e-06	1.795506e-06	
22.044162	6.415358e-06	1.448177e-05	3.185991e-06	1.789699e-06	
22.045162	6.397202e-06	1.447037e-05	3.163973e-06	1.784998e-06	
22.046163	6.377384e-06	1.445743e-05	3.142501e-06	1.781353e-06	
22.047164	6.355995e-06	1.444308e-05	3.121575e-06	1.778716e-06	
22.048165	6.333127e-06	1.442745e-05	3.101196e-06	1.777036e-06	
22.049166	6.308872e-06	1.441067e-05	3.081365e-06	1.776264e-06	
22.050167	6.283321e-06	1.439287e-05	3.062082e-06	1.776351e-06	
22.051168	6.256566e-06	1.437417e-05	3.043349e-06	1.777247e-06	
22.052169	6.228698e-06	1.435471e-05	3.025165e-06	1.778903e-06	
22.053169	6.199810e-06	1.433462e-05	3.007533e-06	1.781269e-06	
22.054170	6.169993e-06	1.431402e-05	2.990451e-06	1.784295e-06	
22.055171	6.139337e-06	1.429304e-05	2.973922e-06	1.787933e-06	
22.056172	6.107936e-06	1.427182e-05	2.957945e-06	1.792132e-06	
22.057173	6.075880e-06	1.425047e-05	2.942523e-06	1.796843e-06	
22.058174	6.043262e-06	1.422914e-05	2.927654e-06	1.802017e-06	
22.059175	6.010172e-06	1.420794e-05	2.913340e-06	1.807605e-06	
22.060176	5.976703e-06	1.418701e-05	2.899583e-06	1.813555e-06	
22.061176	5.942946e-06	1.416648e-05	2.886381e-06	1.819820e-06	
22.062177	5.908992e-06	1.414647e-05	2.873737e-06	1.826350e-06	
22.063178	5.874934e-06	1.412712e-05	2.861651e-06	1.833095e-06	
22.064179	5.840863e-06	1.410855e-05	2.850123e-06	1.840005e-06	
22.065180	5.806870e-06	1.409090e-05	2.839155e-06	1.847032e-06	
22.066181	5.773047e-06	1.407428e-05	2.828747e-06	1.854125e-06	
22.067182	5.739486e-06	1.405884e-05	2.818900e-06	1.861236e-06	
22.068183	5.706279e-06	1.404470e-05	2.809615e-06	1.868314e-06	
22.069183	5.673516e-06	1.403198e-05	2.800891e-06	1.875310e-06	
22.070184	5.641290e-06	1.402082e-05	2.792731e-06	1.882175e-06	
22.071185	5.609692e-06	1.401135e-05	2.785134e-06	1.888859e-06	
22.072186	5.578814e-06	1.400370e-05	2.778102e-06	1.895313e-06	
22.073187	5.548748e-06	1.399799e-05	2.771636e-06	1.901488e-06	
22.074188	5.519584e-06	1.399435e-05	2.765735e-06	1.907333e-06	
22.075189	5.491418e-06	1.399290e-05	2.760400e-06	1.912802e-06	
22.076190	5.464378e-06	1.399359e-05	2.755622e-06	1.917883e-06	
22.077191	5.438613e-06	1.399627e-05	2.751387e-06	1.922587e-06	
22.078191	5.414271e-06	1.400081e-05	2.747681e-06	1.926921e-06	
22.079192	5.391501e-06	1.400704e-05	2.744489e-06	1.930896e-06	
22.080193	5.370453e-06	1.401482e-05	2.741798e-06	1.934521e-06	
22.081194	5.351275e-06	1.402401e-05	2.739593e-06	1.937805e-06	
22.082195	5.334117e-06	1.403446e-05	2.737861e-06	1.940759e-06	
22.083196	5.319127e-06	1.404602e-05	2.736586e-06	1.943392e-06	
22.084197	5.306455e-06	1.405854e-05	2.735754e-06	1.945713e-06	
22.085198	5.296250e-06	1.407187e-05	2.735353e-06	1.947731e-06	
22.086198	5.288659e-06	1.408587e-05	2.735366e-06	1.949457e-06	
22.087199	5.283834e-06	1.410039e-05	2.735781e-06	1.950899e-06	
22.088200	5.281921e-06	1.411528e-05	2.736583e-06	1.952068e-06	
22.089201	5.283071e-06	1.413040e-05	2.737757e-06	1.952972e-06	
22.090202	5.287433e-06	1.414559e-05	2.739290e-06	1.953622e-06	
22.091203	5.295155e-06	1.416071e-05	2.741167e-06	1.954027e-06	
22.092204	5.306386e-06	1.417562e-05	2.743375e-06	1.954196e-06	
22.093205	5.321276e-06	1.419016e-05	2.745898e-06	1.954139e-06	
22.094205	5.339974e-06	1.420418e-05	2.748723e-06	1.953865e-06	
22.095206	5.362628e-06	1.421755e-05	2.751836e-06	1.953384e-06	
22.096207	5.389387e-06	1.423010e-05	2.755222e-06	1.952706e-06	
22.097208	5.420400e-06	1.424170e-05	2.758868e-06	1.951839e-06	
22.098209	5.455818e-06	1.425220e-05	2.762758e-06	1.950794e-06	
22.099210	5.495787e-06	1.426145e-05	2.766880e-06	1.949580e-06	
22.100211	5.540458e-06	1.426930e-05	2.771218e-06	1.948207e-06	
22.101212	5.589979e-06	1.427560e-05	2.775758e-06	1.946683e-06	
22.102212	5.644500e-06	1.428021e-05	2.780487e-06	1.945019e-06	
22.103213	5.704169e-06	1.428297e-05	2.785389e-06	1.943224e-06	
22.104214	5.769136e-06	1.428375e-05	2.790452e-06	1.941308e-06	
22.105215	5.839549e-06	1.428240e-05	2.795661e-06	1.939280e-06	
22.106216	5.915558e-06	1.427876e-05	2.801001e-06	1.937149e-06	
22.107217	5.997310e-06	1.427269e-05	2.806458e-06	1.934925e-06	
22.108218	6.084957e-06	1.426403e-05	2.812018e-06	1.932619e-06	
22.109219	6.178645e-06	1.425266e-05	2.817668e-06	1.930238e-06	
22.110219	6.278525e-06	1.423841e-05	2.823392e-06	1.927793e-06	
22.111220	6.384746e-06	1.422114e-05	2.829176e-06	1.925293e-06	
22.112221	6.497456e-06	1.420070e-05	2.835007e-06	1.922748e-06	
22.113222	6.616804e-06	1.417694e-05	2.840871e-06	1.920167e-06	
22.114223	6.742940e-06	1.414972e-05	2.846752e-06	1.917560e-06	
22.115224	6.876012e-06	1.411889e-05	2.852637e-06	1.914936e-06	
22.116225	7.016169e-06	1.408430e-05	2.858512e-06	1.912305e-06	
22.117226	7.163561e-06	1.404580e-05	2.864362e-06	1.909676e-06	
22.118227	7.318336e-06	1.400325e-05	2.870174e-06	1.907059e-06	
22.119227	7.480643e-06	1.395649e-05	2.875932e-06	1.904464e-06	
22.120228	7.650632e-06	1.390539e-05	2.881623e-06	1.901899e-06	
22.121229	7.828451e-06	1.384979e-05	2.887233e-06	1.899375e-06	
22.122230	8.014250e-06	1.378955e-05	2.892748e-06	1.896900e-06	
22.123231	8.208177e-06	1.372452e-05	2.898153e-06	1.894485e-06	
22.124232	8.410381e-06	1.365454e-05	2.903434e-06	1.892139e-06	
22.125233	8.620981e-06	1.357951e-05	2.908577e-06	1.889870e-06	
22.126234	8.839810e-06	1.349949e-05	2.913572e-06	1.887675e-06	
22.127234	9.066542e-06	1.341470e-05	2.918409e-06	1.885544e-06	
22.128235	9.300851e-06	1.332534e-05	2.923079e-06	1.883467e-06	
22.129236	9.542411e-06	1.323161e-05	2.927574e-06	1.881435e-06	
22.130237	9.790897e-06	1.313372e-05	2.931884e-06	1.879437e-06	
22.131238	1.004598e-05	1.303187e-05	2.936001e-06	1.877464e-06	
22.132239	1.030734e-05	1.292626e-05	2.939914e-06	1.875505e-06	
22.133240	1.057464e-05	1.281710e-05	2.943615e-06	1.873551e-06	
22.134241	1.084757e-05	1.270459e-05	2.947096e-06	1.871592e-06	
22.135241	1.112578e-05	1.258894e-05	2.950347e-06	1.869619e-06	
22.136242	1.140897e-05	1.247035e-05	2.953358e-06	1.867621e-06	
22.137243	1.169680e-05	1.234901e-05	2.956121e-06	1.865588e-06	
22.138244	1.198894e-05	1.222515e-05	2.958628e-06	1.863511e-06	
22.139245	1.228507e-05	1.209896e-05	2.960868e-06	1.861380e-06	
22.140246	1.258487e-05	1.197064e-05	2.962832e-06	1.859185e-06	
22.141247	1.288800e-05	1.184040e-05	2.964513e-06	1.856916e-06	
22.142248	1.319414e-05	1.170844e-05	2.965900e-06	1.854563e-06	
22.143248	1.350297e-05	1.157497e-05	2.966984e-06	1.852116e-06	
22.144249	1.381416e-05	1.144019e-05	2.967757e-06	1.849566e-06	
22.145250	1.412738e-05	1.130430e-05	2.968210e-06	1.846903e-06	
22.146251	1.444230e-05	1.116751e-05	2.968333e-06	1.844116e-06	
22.147252	1.475861e-05	1.103002e-05	2.968117e-06	1.841196e-06	
22.148253	1.507597e-05	1.089204e-05	2.967553e-06	1.838134e-06	
22.149254	1.539405e-05	1.075376e-05	2.966633e-06	1.834918e-06	
22.150255	1.571254e-05	1.061539e-05	2.965347e-06	1.831541e-06	
22.151255	1.603110e-05	1.047715e-05	2.963686e-06	1.827990e-06	
22.152256	1.634942e-05	1.033922e-05	2.961641e-06	1.824257e-06	
22.153257	1.666715e-05	1.020182e-05	2.959203e-06	1.820333e-06	
22.154258	1.698398e-05	1.006514e-05	2.956363e-06	1.816206e-06	
22.155259	1.729959e-05	9.929398e-06	2.953112e-06	1.811867e-06	
22.156260	1.761363e-05	9.794789e-06	2.949441e-06	1.807306e-06	
22.157261	1.792580e-05	9.661520e-06	2.945341e-06	1.802514e-06	
22.158262	1.823575e-05	9.529793e-06	2.940802e-06	1.797481e-06	
22.159263	1.854317e-05	9.399814e-06	2.935816e-06	1.792196e-06	
22.160263	1.884774e-05	9.271784e-06	2.930374e-06	1.786650e-06	
22.161264	1.914911e-05	9.145910e-06	2.924466e-06	1.780833e-06	
22.162265	1.944697e-05	9.022393e-06	2.918084e-06	1.774735e-06	
22.163266	1.974100e-05	8.901439e-06	2.911219e-06	1.768347e-06	
22.164267	2.003086e-05	8.783250e-06	2.903860e-06	1.761658e-06	
22.165268	2.031622e-05	8.668031e-06	2.896001e-06	1.754658e-06	
22.166269	2.059677e-05	8.555985e-06	2.887630e-06	1.747339e-06	
22.167270	2.087218e-05	8.447317e-06	2.878740e-06	1.739689e-06	
22.168270	2.114211e-05	8.342230e-06	2.869321e-06	1.731699e-06	
22.169271	2.140625e-05	8.240927e-06	2.859364e-06	1.723359e-06	
22.170272	2.166427e-05	8.143613e-06	2.848860e-06	1.714660e-06	
22.171273	2.191584e-05	8.050491e-06	2.837800e-06	1.705591e-06	
22.172274	2.216063e-05	7.961766e-06	2.826175e-06	1.696142e-06	
22.173275	2.239833e-05	7.877641e-06	2.813977e-06	1.686305e-06	
22.174276	2.262860e-05	7.798319e-06	2.801195e-06	1.676068e-06	
22.175277	2.285114e-05	7.723989e-06	2.787824e-06	1.665430e-06	
