X [s]	1 Gast Med [V]	2 T Ant [V]	3 R Fem [V]	4 B Fem [V]	
11.420000	8.219175e-06	4.582960e-06	4.787860e-05	9.805302e-06	
11.421000	8.248483e-06	4.701502e-06	4.805316e-05	9.899783e-06	
11.422000	8.271175e-06	4.825804e-06	4.818431e-05	9.992568e-06	
11.423000	8.287024e-06	4.955909e-06	4.827009e-05	1.008354e-05	
11.424001	8.295802e-06	5.091857e-06	4.830855e-05	1.017257e-05	
11.425001	8.297289e-06	5.233685e-06	4.829780e-05	1.025954e-05	
11.426001	8.291485e-06	5.381328e-06	4.823764e-05	1.034437e-05	
11.427001	8.278610e-06	5.534614e-06	4.812958e-05	1.042700e-05	
11.428001	8.258896e-06	5.693367e-06	4.797519e-05	1.050738e-05	
11.429001	8.232576e-06	5.857411e-06	4.777608e-05	1.058544e-05	
11.430001	8.199880e-06	6.026571e-06	4.753383e-05	1.066115e-05	
11.431002	8.161041e-06	6.200671e-06	4.725001e-05	1.073444e-05	
11.432002	8.116289e-06	6.379534e-06	4.692623e-05	1.080525e-05	
11.433002	8.065857e-06	6.562985e-06	4.656406e-05	1.087354e-05	
11.434002	8.009976e-06	6.750848e-06	4.616510e-05	1.093926e-05	
11.435002	7.948877e-06	6.942946e-06	4.573093e-05	1.100234e-05	
11.436002	7.882793e-06	7.139104e-06	4.526313e-05	1.106273e-05	
11.437003	7.811955e-06	7.339146e-06	4.476330e-05	1.112038e-05	
11.438003	7.736594e-06	7.542897e-06	4.423302e-05	1.117524e-05	
11.439003	7.656942e-06	7.750179e-06	4.367388e-05	1.122724e-05	
11.440003	7.573232e-06	7.960818e-06	4.308746e-05	1.127635e-05	
11.441003	7.485693e-06	8.174636e-06	4.247535e-05	1.132249e-05	
11.442003	7.394559e-06	8.391459e-06	4.183914e-05	1.136563e-05	
11.443003	7.300060e-06	8.611111e-06	4.118042e-05	1.140569e-05	
11.444004	7.202428e-06	8.833415e-06	4.050077e-05	1.144264e-05	
11.445004	7.101895e-06	9.058195e-06	3.980177e-05	1.147642e-05	
11.446004	6.998693e-06	9.285276e-06	3.908502e-05	1.150696e-05	
11.447004	6.893053e-06	9.514482e-06	3.835211e-05	1.153423e-05	
11.448004	6.785206e-06	9.745636e-06	3.760461e-05	1.155815e-05	
11.449004	6.675385e-06	9.978564e-06	3.684412e-05	1.157869e-05	
11.450004	6.563821e-06	1.021309e-05	3.607223e-05	1.159578e-05	
11.451005	6.450745e-06	1.044903e-05	3.529051e-05	1.160937e-05	
11.452005	6.336389e-06	1.068622e-05	3.450056e-05	1.161941e-05	
11.453005	6.220985e-06	1.092448e-05	3.370396e-05	1.162585e-05	
11.454005	6.104765e-06	1.116363e-05	3.290230e-05	1.162862e-05	
11.455005	5.987959e-06	1.140350e-05	3.209717e-05	1.162768e-05	
11.456005	5.870800e-06	1.164391e-05	3.129016e-05	1.162297e-05	
11.457006	5.753520e-06	1.188469e-05	3.048284e-05	1.161443e-05	
11.458006	5.636349e-06	1.212566e-05	2.967682e-05	1.160202e-05	
11.459006	5.519519e-06	1.236664e-05	2.887366e-05	1.158568e-05	
11.460006	5.403263e-06	1.260745e-05	2.807497e-05	1.156535e-05	
11.461006	5.287811e-06	1.284793e-05	2.728233e-05	1.154098e-05	
11.462006	5.173396e-06	1.308790e-05	2.649732e-05	1.151251e-05	
11.463006	5.060249e-06	1.332717e-05	2.572153e-05	1.147990e-05	
11.464007	4.948601e-06	1.356558e-05	2.495655e-05	1.144309e-05	
11.465007	4.838684e-06	1.380294e-05	2.420397e-05	1.140202e-05	
11.466007	4.730730e-06	1.403909e-05	2.346537e-05	1.135664e-05	
11.467007	4.624971e-06	1.427385e-05	2.274234e-05	1.130690e-05	
11.468007	4.521637e-06	1.450703e-05	2.203646e-05	1.125274e-05	
11.469007	4.420961e-06	1.473847e-05	2.134933e-05	1.119410e-05	
11.470007	4.323174e-06	1.496799e-05	2.068253e-05	1.113094e-05	
11.471008	4.228508e-06	1.519540e-05	2.003764e-05	1.106320e-05	
11.472008	4.137195e-06	1.542055e-05	1.941626e-05	1.099082e-05	
11.473008	4.049465e-06	1.564325e-05	1.881997e-05	1.091376e-05	
11.474008	3.965552e-06	1.586332e-05	1.825035e-05	1.083195e-05	
11.475008	3.885679e-06	1.608060e-05	1.770895e-05	1.074536e-05	
11.476008	3.809933e-06	1.629515e-05	1.719623e-05	1.065419e-05	
11.477009	3.738259e-06	1.650728e-05	1.671154e-05	1.055891e-05	
11.478009	3.670596e-06	1.671728e-05	1.625422e-05	1.046001e-05	
11.479009	3.606881e-06	1.692548e-05	1.582359e-05	1.035795e-05	
11.480009	3.547055e-06	1.713216e-05	1.541896e-05	1.025322e-05	
11.481009	3.491056e-06	1.733766e-05	1.503966e-05	1.014630e-05	
11.482009	3.438823e-06	1.754226e-05	1.468502e-05	1.003767e-05	
11.483009	3.390294e-06	1.774629e-05	1.435435e-05	9.927791e-06	
11.484010	3.345409e-06	1.795004e-05	1.404697e-05	9.817158e-06	
11.485010	3.304107e-06	1.815382e-05	1.376221e-05	9.706244e-06	
11.486010	3.266326e-06	1.835795e-05	1.349939e-05	9.595528e-06	
11.487010	3.232005e-06	1.856273e-05	1.325782e-05	9.485489e-06	
11.488010	3.201083e-06	1.876847e-05	1.303685e-05	9.376603e-06	
11.489010	3.173498e-06	1.897547e-05	1.283577e-05	9.269350e-06	
11.490010	3.149191e-06	1.918405e-05	1.265392e-05	9.164209e-06	
11.491011	3.128099e-06	1.939451e-05	1.249062e-05	9.061656e-06	
11.492011	3.110161e-06	1.960716e-05	1.234519e-05	8.962172e-06	
11.493011	3.095317e-06	1.982231e-05	1.221695e-05	8.866233e-06	
11.494011	3.083504e-06	2.004026e-05	1.210523e-05	8.774319e-06	
11.495011	3.074663e-06	2.026133e-05	1.200934e-05	8.686907e-06	
11.496011	3.068731e-06	2.048582e-05	1.192860e-05	8.604476e-06	
11.497012	3.065648e-06	2.071404e-05	1.186235e-05	8.527505e-06	
11.498012	3.065353e-06	2.094629e-05	1.180990e-05	8.456471e-06	
11.499012	3.067783e-06	2.118289e-05	1.177057e-05	8.391854e-06	
11.500012	3.072879e-06	2.142415e-05	1.174368e-05	8.334130e-06	
11.501012	3.080579e-06	2.167036e-05	1.172856e-05	8.283779e-06	
11.502012	3.090822e-06	2.192184e-05	1.172453e-05	8.241279e-06	
11.503012	3.103546e-06	2.217890e-05	1.173091e-05	8.207108e-06	
11.504013	3.118691e-06	2.244185e-05	1.174702e-05	8.181745e-06	
11.505013	3.136195e-06	2.271098e-05	1.177219e-05	8.165668e-06	
11.506013	3.155998e-06	2.298662e-05	1.180573e-05	8.159355e-06	
11.507013	3.178038e-06	2.326906e-05	1.184697e-05	8.163284e-06	
11.508013	3.202253e-06	2.355862e-05	1.189523e-05	8.177934e-06	
11.509013	3.228584e-06	2.385561e-05	1.194983e-05	8.203784e-06	
11.510013	3.256968e-06	2.416032e-05	1.201009e-05	8.241311e-06	
11.511014	3.287344e-06	2.447308e-05	1.207534e-05	8.290994e-06	
11.512014	3.319652e-06	2.479418e-05	1.214489e-05	8.353311e-06	
11.513014	3.353830e-06	2.512394e-05	1.221807e-05	8.428740e-06	
11.514014	3.389817e-06	2.546266e-05	1.229421e-05	8.517761e-06	
11.515014	3.427552e-06	2.581065e-05	1.237261e-05	8.620850e-06	
11.516014	3.466974e-06	2.616822e-05	1.245261e-05	8.738487e-06	
11.517015	3.508021e-06	2.653567e-05	1.253353e-05	8.871149e-06	
11.518015	3.550633e-06	2.691333e-05	1.261468e-05	9.019316e-06	
11.519015	3.594748e-06	2.730148e-05	1.269539e-05	9.183465e-06	
11.520015	3.640305e-06	2.770044e-05	1.277499e-05	9.364075e-06	
11.521015	3.687243e-06	2.811052e-05	1.285279e-05	9.561624e-06	
11.522015	3.735501e-06	2.853203e-05	1.292811e-05	9.776590e-06	
11.523015	3.785017e-06	2.896527e-05	1.300028e-05	1.000945e-05	
11.524016	3.835731e-06	2.941056e-05	1.306862e-05	1.026069e-05	
11.525016	3.887581e-06	2.986816e-05	1.313247e-05	1.053075e-05	
11.526016	3.940487e-06	3.033766e-05	1.319154e-05	1.081945e-05	
11.527016	3.994355e-06	3.081794e-05	1.324590e-05	1.112600e-05	
11.528016	4.049087e-06	3.130788e-05	1.329566e-05	1.144955e-05	
11.529016	4.104588e-06	3.180634e-05	1.334092e-05	1.178930e-05	
11.530016	4.160761e-06	3.231218e-05	1.338175e-05	1.214440e-05	
11.531017	4.217510e-06	3.282426e-05	1.341827e-05	1.251403e-05	
11.532017	4.274738e-06	3.334145e-05	1.345056e-05	1.289736e-05	
11.533017	4.332350e-06	3.386261e-05	1.347872e-05	1.329356e-05	
11.534017	4.390249e-06	3.438661e-05	1.350285e-05	1.370181e-05	
11.535017	4.448338e-06	3.491231e-05	1.352304e-05	1.412128e-05	
11.536017	4.506522e-06	3.543857e-05	1.353939e-05	1.455114e-05	
11.537018	4.564704e-06	3.596426e-05	1.355199e-05	1.499057e-05	
11.538018	4.622788e-06	3.648823e-05	1.356093e-05	1.543872e-05	
11.539018	4.680677e-06	3.700936e-05	1.356631e-05	1.589479e-05	
11.540018	4.738276e-06	3.752651e-05	1.356824e-05	1.635793e-05	
11.541018	4.795487e-06	3.803854e-05	1.356679e-05	1.682732e-05	
11.542018	4.852215e-06	3.854432e-05	1.356207e-05	1.730214e-05	
11.543018	4.908363e-06	3.904270e-05	1.355417e-05	1.778155e-05	
11.544019	4.963836e-06	3.953256e-05	1.354319e-05	1.826473e-05	
11.545019	5.018536e-06	4.001275e-05	1.352923e-05	1.875085e-05	
11.546019	5.072367e-06	4.048214e-05	1.351237e-05	1.923908e-05	
11.547019	5.125234e-06	4.093960e-05	1.349271e-05	1.972859e-05	
11.548019	5.177039e-06	4.138398e-05	1.347035e-05	2.021856e-05	
11.549019	5.227687e-06	4.181416e-05	1.344539e-05	2.070816e-05	
11.550019	5.277081e-06	4.222899e-05	1.341791e-05	2.119656e-05	
11.551020	5.325125e-06	4.262734e-05	1.338802e-05	2.168293e-05	
11.552020	5.371723e-06	4.300807e-05	1.335581e-05	2.216644e-05	
11.553020	5.416778e-06	4.337004e-05	1.332137e-05	2.264627e-05	
11.554020	5.460194e-06	4.371213e-05	1.328480e-05	2.312159e-05	
11.555020	5.501874e-06	4.403319e-05	1.324619e-05	2.359157e-05	
11.556020	5.541724e-06	4.433208e-05	1.320564e-05	2.405539e-05	
11.557021	5.579645e-06	4.460768e-05	1.316325e-05	2.451221e-05	
11.558021	5.615542e-06	4.485884e-05	1.311911e-05	2.496120e-05	
11.559021	5.649318e-06	4.508443e-05	1.307331e-05	2.540155e-05	
11.560021	5.680878e-06	4.528332e-05	1.302595e-05	2.583242e-05	
11.561021	5.710125e-06	4.545435e-05	1.297713e-05	2.625298e-05	
11.562021	5.736962e-06	4.559641e-05	1.292694e-05	2.666240e-05	
11.563021	5.761293e-06	4.570835e-05	1.287547e-05	2.705987e-05	
11.564022	5.783023e-06	4.578904e-05	1.282283e-05	2.744454e-05	
11.565022	5.802054e-06	4.583734e-05	1.276910e-05	2.781560e-05	
11.566022	5.818291e-06	4.585211e-05	1.271438e-05	2.817221e-05	
11.567022	5.831637e-06	4.583222e-05	1.265877e-05	2.851355e-05	
11.568022	5.841996e-06	4.577653e-05	1.260236e-05	2.883878e-05	
11.569022	5.849271e-06	4.568391e-05	1.254524e-05	2.914709e-05	
11.570022	5.853366e-06	4.555321e-05	1.248752e-05	2.943764e-05	
11.571023	5.854186e-06	4.538331e-05	1.242929e-05	2.970960e-05	
11.572023	5.851632e-06	4.517306e-05	1.237063e-05	2.996215e-05	
11.573023	5.845611e-06	4.492134e-05	1.231166e-05	3.019447e-05	
11.574023	5.836024e-06	4.462700e-05	1.225245e-05	3.040571e-05	
11.575023	5.822781e-06	4.428897e-05	1.219312e-05	3.059509e-05	
11.576023	5.805909e-06	4.390751e-05	1.213367e-05	3.076252e-05	
11.577024	5.785547e-06	4.348419e-05	1.207408e-05	3.090863e-05	
11.578024	5.761839e-06	4.302061e-05	1.201432e-05	3.103405e-05	
11.579024	5.734928e-06	4.251837e-05	1.195433e-05	3.113941e-05	
11.580024	5.704959e-06	4.197910e-05	1.189410e-05	3.122537e-05	
11.581024	5.672075e-06	4.140440e-05	1.183358e-05	3.129255e-05	
11.582024	5.636421e-06	4.079588e-05	1.177273e-05	3.134161e-05	
11.583024	5.598140e-06	4.015514e-05	1.171151e-05	3.137317e-05	
11.584025	5.557377e-06	3.948380e-05	1.164990e-05	3.138788e-05	
11.585025	5.514275e-06	3.878346e-05	1.158785e-05	3.138638e-05	
11.586025	5.468978e-06	3.805575e-05	1.152533e-05	3.136930e-05	
11.587025	5.421630e-06	3.730225e-05	1.146230e-05	3.133730e-05	
11.588025	5.372375e-06	3.652459e-05	1.139872e-05	3.129100e-05	
11.589025	5.321357e-06	3.572437e-05	1.133456e-05	3.123104e-05	
11.590025	5.268719e-06	3.490321e-05	1.126978e-05	3.115808e-05	
11.591026	5.214607e-06	3.406270e-05	1.120434e-05	3.107274e-05	
11.592026	5.159163e-06	3.320447e-05	1.113821e-05	3.097566e-05	
11.593026	5.102532e-06	3.233012e-05	1.107134e-05	3.086750e-05	
11.594026	5.044857e-06	3.144125e-05	1.100371e-05	3.074887e-05	
11.595026	4.986283e-06	3.053949e-05	1.093527e-05	3.062044e-05	
11.596026	4.926953e-06	2.962643e-05	1.086599e-05	3.048283e-05	
11.597027	4.867012e-06	2.870369e-05	1.079584e-05	3.033668e-05	
11.598027	4.806602e-06	2.777287e-05	1.072476e-05	3.018264e-05	
11.599027	4.745869e-06	2.683559e-05	1.065274e-05	3.002134e-05	
11.600027	4.684956e-06	2.589346e-05	1.057973e-05	2.985343e-05	
11.601027	4.624007e-06	2.494808e-05	1.050569e-05	2.967954e-05	
11.602027	4.563165e-06	2.400106e-05	1.043059e-05	2.950032e-05	
11.603027	4.502576e-06	2.305401e-05	1.035439e-05	2.931639e-05	
11.604028	4.442382e-06	2.210855e-05	1.027706e-05	2.912842e-05	
11.605028	4.382728e-06	2.116627e-05	1.019855e-05	2.893702e-05	
11.606028	4.323758e-06	2.022880e-05	1.011883e-05	2.874285e-05	
11.607028	4.265615e-06	1.929774e-05	1.003787e-05	2.854654e-05	
11.608028	4.208443e-06	1.837469e-05	9.955620e-06	2.834873e-05	
11.609028	4.152387e-06	1.746127e-05	9.872054e-06	2.815006e-05	
11.610028	4.097590e-06	1.655909e-05	9.787130e-06	2.795118e-05	
11.611029	4.044196e-06	1.566975e-05	9.700812e-06	2.775272e-05	
11.612029	3.992350e-06	1.479488e-05	9.613064e-06	2.755532e-05	
11.613029	3.942194e-06	1.393606e-05	9.523849e-06	2.735961e-05	
11.614029	3.893874e-06	1.309492e-05	9.433130e-06	2.716626e-05	
11.615029	3.847532e-06	1.227306e-05	9.340870e-06	2.697588e-05	
11.616029	3.803313e-06	1.147210e-05	9.247032e-06	2.678912e-05	
11.617029	3.761361e-06	1.069363e-05	9.151579e-06	2.660662e-05	
11.618030	3.721820e-06	9.939278e-06	9.054475e-06	2.642902e-05	
11.619030	3.684833e-06	9.210645e-06	8.955683e-06	2.625696e-05	
11.620030	3.650544e-06	8.509341e-06	8.855166e-06	2.609108e-05	
11.621030	3.619098e-06	7.836976e-06	8.752887e-06	2.593202e-05	
11.622030	3.590639e-06	7.195159e-06	8.648810e-06	2.578041e-05	
11.623030	3.565309e-06	6.585499e-06	8.542896e-06	2.563691e-05	
11.624031	3.543254e-06	6.009605e-06	8.435111e-06	2.550214e-05	
11.625031	3.524610e-06	5.469026e-06	8.325421e-06	2.537673e-05	
11.626031	3.509360e-06	4.964062e-06	8.213875e-06	2.526085e-05	
11.627031	3.497344e-06	4.493829e-06	8.100603e-06	2.515426e-05	
11.628031	3.488396e-06	4.057399e-06	7.985734e-06	2.505668e-05	
11.629031	3.482350e-06	3.653843e-06	7.869401e-06	2.496786e-05	
11.630031	3.479038e-06	3.282231e-06	7.751736e-06	2.488753e-05	
11.631032	3.478296e-06	2.941634e-06	7.632868e-06	2.481542e-05	
11.632032	3.479957e-06	2.631124e-06	7.512929e-06	2.475129e-05	
11.633032	3.483854e-06	2.349771e-06	7.392051e-06	2.469485e-05	
11.634032	3.489821e-06	2.096647e-06	7.270365e-06	2.464585e-05	
11.635032	3.497693e-06	1.870822e-06	7.148002e-06	2.460403e-05	
11.636032	3.507302e-06	1.671367e-06	7.025094e-06	2.456911e-05	
11.637032	3.518483e-06	1.497354e-06	6.901771e-06	2.454084e-05	
11.638033	3.531070e-06	1.347853e-06	6.778165e-06	2.451895e-05	
11.639033	3.544895e-06	1.221935e-06	6.654407e-06	2.450319e-05	
11.640033	3.559794e-06	1.118671e-06	6.530629e-06	2.449327e-05	
11.641033	3.575599e-06	1.037132e-06	6.406961e-06	2.448895e-05	
11.642033	3.592145e-06	9.763893e-07	6.283535e-06	2.448996e-05	
11.643033	3.609264e-06	9.355136e-07	6.160483e-06	2.449603e-05	
11.644034	3.626792e-06	9.135760e-07	6.037935e-06	2.450690e-05	
11.645034	3.644562e-06	9.096473e-07	5.916023e-06	2.452231e-05	
11.646034	3.662407e-06	9.227985e-07	5.794877e-06	2.454200e-05	
11.647034	3.680161e-06	9.521007e-07	5.674630e-06	2.456569e-05	
11.648034	3.697658e-06	9.966247e-07	5.555413e-06	2.459313e-05	
11.649034	3.714732e-06	1.055442e-06	5.437356e-06	2.462405e-05	
11.650034	3.731216e-06	1.127622e-06	5.320592e-06	2.465819e-05	
11.651035	3.746945e-06	1.212238e-06	5.205250e-06	2.469528e-05	
11.652035	3.761752e-06	1.308359e-06	5.091464e-06	2.473507e-05	
11.653035	3.775471e-06	1.415057e-06	4.979363e-06	2.477728e-05	
11.654035	3.787935e-06	1.531402e-06	4.869079e-06	2.482166e-05	
11.655035	3.798978e-06	1.656466e-06	4.760744e-06	2.486794e-05	
11.656035	3.808435e-06	1.789320e-06	4.654488e-06	2.491586e-05	
11.657035	3.816139e-06	1.929034e-06	4.550443e-06	2.496515e-05	
11.658036	3.821923e-06	2.074680e-06	4.448740e-06	2.501555e-05	
11.659036	3.825621e-06	2.225328e-06	4.349511e-06	2.506679e-05	
11.660036	3.827068e-06	2.380050e-06	4.252886e-06	2.511862e-05	
11.661036	3.826096e-06	2.537916e-06	4.158998e-06	2.517077e-05	
11.662036	3.822541e-06	2.697997e-06	4.067976e-06	2.522297e-05	
11.663036	3.816234e-06	2.859365e-06	3.979953e-06	2.527496e-05	
11.664037	3.807011e-06	3.021090e-06	3.895060e-06	2.532648e-05	
11.665037	3.794705e-06	3.182244e-06	3.813428e-06	2.537726e-05	
11.666037	3.779150e-06	3.341896e-06	3.735188e-06	2.542705e-05	
11.667037	3.760179e-06	3.499119e-06	3.660471e-06	2.547557e-05	
11.668037	3.737626e-06	3.652983e-06	3.589409e-06	2.552256e-05	
11.669037	3.711326e-06	3.802559e-06	3.522134e-06	2.556777e-05	
11.670037	3.681111e-06	3.946919e-06	3.458775e-06	2.561092e-05	
11.671038	3.646815e-06	4.085132e-06	3.399465e-06	2.565175e-05	
11.672038	3.608273e-06	4.216270e-06	3.344335e-06	2.569000e-05	
11.673038	3.565318e-06	4.339404e-06	3.293517e-06	2.572540e-05	
11.674038	3.517784e-06	4.453606e-06	3.247140e-06	2.575770e-05	
11.675038	3.465518e-06	4.557975e-06	3.205334e-06	2.578663e-05	
11.676038	3.408648e-06	4.652215e-06	3.168157e-06	2.581211e-05	
11.677038	3.347557e-06	4.736587e-06	3.135606e-06	2.583420e-05	
11.678039	3.282642e-06	4.811373e-06	3.107675e-06	2.585298e-05	
11.679039	3.214296e-06	4.876857e-06	3.084357e-06	2.586852e-05	
11.680039	3.142915e-06	4.933319e-06	3.065646e-06	2.588088e-05	
11.681039	3.068894e-06	4.981043e-06	3.051535e-06	2.589015e-05	
11.682039	2.992627e-06	5.020310e-06	3.042020e-06	2.589639e-05	
11.683039	2.914510e-06	5.051403e-06	3.037092e-06	2.589968e-05	
11.684040	2.834937e-06	5.074604e-06	3.036746e-06	2.590009e-05	
11.685040	2.754303e-06	5.090196e-06	3.040976e-06	2.589769e-05	
11.686040	2.673003e-06	5.098460e-06	3.049776e-06	2.589255e-05	
11.687040	2.591433e-06	5.099679e-06	3.063138e-06	2.588474e-05	
11.688040	2.509985e-06	5.094135e-06	3.081058e-06	2.587435e-05	
11.689040	2.429057e-06	5.082111e-06	3.103528e-06	2.586143e-05	
11.690040	2.349042e-06	5.063889e-06	3.130542e-06	2.584606e-05	
11.691041	2.270335e-06	5.039751e-06	3.162094e-06	2.582832e-05	
11.692041	2.193332e-06	5.009979e-06	3.198178e-06	2.580827e-05	
11.693041	2.118427e-06	4.974856e-06	3.238788e-06	2.578599e-05	
11.694041	2.046014e-06	4.934663e-06	3.283917e-06	2.576154e-05	
11.695041	1.976490e-06	4.889684e-06	3.333558e-06	2.573501e-05	
11.696041	1.910248e-06	4.840200e-06	3.387707e-06	2.570647e-05	
11.697041	1.847684e-06	4.786494e-06	3.446355e-06	2.567598e-05	
11.698042	1.789193e-06	4.728849e-06	3.509498e-06	2.564362e-05	
11.699042	1.735169e-06	4.667545e-06	3.577129e-06	2.560946e-05	
11.700042	1.686007e-06	4.602866e-06	3.649242e-06	2.557357e-05	
11.701042	1.642103e-06	4.535094e-06	3.725830e-06	2.553602e-05	
11.702042	1.603850e-06	4.464511e-06	3.806886e-06	2.549689e-05	
11.703042	1.571644e-06	4.391399e-06	3.892406e-06	2.545625e-05	
11.704043	1.545880e-06	4.316041e-06	3.982382e-06	2.541417e-05	
11.705043	1.526953e-06	4.238719e-06	4.076809e-06	2.537073e-05	
11.706043	1.515257e-06	4.159716e-06	4.175679e-06	2.532599e-05	
11.707043	1.511187e-06	4.079313e-06	4.278987e-06	2.528002e-05	
11.708043	1.515139e-06	3.997792e-06	4.386727e-06	2.523291e-05	
11.709043	1.527507e-06	3.915437e-06	4.498892e-06	2.518471e-05	
11.710043	1.548686e-06	3.832529e-06	4.615475e-06	2.513551e-05	
11.711044	1.579070e-06	3.749351e-06	4.736471e-06	2.508538e-05	
11.712044	1.619056e-06	3.666185e-06	4.861874e-06	2.503438e-05	
11.713044	1.669037e-06	3.583313e-06	4.991677e-06	2.498259e-05	
11.714044	1.729408e-06	3.501017e-06	5.125873e-06	2.493009e-05	
11.715044	1.800565e-06	3.419581e-06	5.264457e-06	2.487694e-05	
11.716044	1.882903e-06	3.339285e-06	5.407423e-06	2.482321e-05	
11.717044	1.976815e-06	3.260413e-06	5.554763e-06	2.476899e-05	
11.718045	2.082697e-06	3.183246e-06	5.706472e-06	2.471433e-05	
11.719045	2.200944e-06	3.108067e-06	5.862544e-06	2.465932e-05	
11.720045	2.331951e-06	3.035158e-06	6.022972e-06	2.460402e-05	
11.721045	2.476113e-06	2.964802e-06	6.187749e-06	2.454851e-05	
11.722045	2.633824e-06	2.897280e-06	6.356871e-06	2.449285e-05	
11.723045	2.805479e-06	2.832876e-06	6.530329e-06	2.443713e-05	
11.724046	2.991474e-06	2.771870e-06	6.708119e-06	2.438141e-05	
11.725046	3.192174e-06	2.714539e-06	6.890225e-06	2.432576e-05	
11.726046	3.407396e-06	2.661003e-06	7.076451e-06	2.427019e-05	
11.727046	3.636455e-06	2.611245e-06	7.266439e-06	2.421462e-05	
11.728046	3.878648e-06	2.565243e-06	7.459826e-06	2.415901e-05	
11.729046	4.133271e-06	2.522974e-06	7.656246e-06	2.410328e-05	
11.730046	4.399623e-06	2.484418e-06	7.855337e-06	2.404737e-05	
11.731047	4.677000e-06	2.449550e-06	8.056733e-06	2.399121e-05	
11.732047	4.964698e-06	2.418349e-06	8.260070e-06	2.393476e-05	
11.733047	5.262016e-06	2.390794e-06	8.464985e-06	2.387793e-05	
11.734047	5.568251e-06	2.366861e-06	8.671113e-06	2.382068e-05	
11.735047	5.882698e-06	2.346528e-06	8.878089e-06	2.376293e-05	
11.736047	6.204656e-06	2.329773e-06	9.085551e-06	2.370462e-05	
11.737047	6.533421e-06	2.316575e-06	9.293133e-06	2.364569e-05	
11.738048	6.868291e-06	2.306909e-06	9.500472e-06	2.358607e-05	
11.739048	7.208562e-06	2.300756e-06	9.707203e-06	2.352571e-05	
11.740048	7.553532e-06	2.298091e-06	9.912962e-06	2.346453e-05	
11.741048	7.902497e-06	2.298894e-06	1.011738e-05	2.340248e-05	
11.742048	8.254755e-06	2.303141e-06	1.032011e-05	2.333950e-05	
11.743048	8.609603e-06	2.310811e-06	1.052077e-05	2.327551e-05	
11.744049	8.966337e-06	2.321882e-06	1.071900e-05	2.321046e-05	
11.745049	9.324255e-06	2.336330e-06	1.091443e-05	2.314428e-05	
11.746049	9.682654e-06	2.354134e-06	1.110671e-05	2.307691e-05	
11.747049	1.004083e-05	2.375272e-06	1.129547e-05	2.300828e-05	
11.748049	1.039808e-05	2.399721e-06	1.148035e-05	2.293834e-05	
11.749049	1.075371e-05	2.427459e-06	1.166097e-05	2.286701e-05	
11.750049	1.110700e-05	2.458464e-06	1.183698e-05	2.279425e-05	
11.751050	1.145726e-05	2.492714e-06	1.200801e-05	2.271997e-05	
11.752050	1.180378e-05	2.530187e-06	1.217371e-05	2.264413e-05	
11.753050	1.214587e-05	2.570860e-06	1.233369e-05	2.256665e-05	
11.754050	1.248281e-05	2.614710e-06	1.248761e-05	2.248747e-05	
11.755050	1.281390e-05	2.661717e-06	1.263509e-05	2.240654e-05	
11.756050	1.313845e-05	2.711857e-06	1.277577e-05	2.232378e-05	
11.757050	1.345574e-05	2.765108e-06	1.290929e-05	2.223913e-05	
11.758051	1.376508e-05	2.821449e-06	1.303528e-05	2.215253e-05	
11.759051	1.406576e-05	2.880856e-06	1.315338e-05	2.206392e-05	
11.760051	1.435709e-05	2.943308e-06	1.326323e-05	2.197323e-05	
11.761051	1.463834e-05	3.008783e-06	1.336445e-05	2.188040e-05	
11.762051	1.490884e-05	3.077258e-06	1.345669e-05	2.178537e-05	
11.763051	1.516786e-05	3.148710e-06	1.353959e-05	2.168808e-05	
11.764052	1.541471e-05	3.223119e-06	1.361277e-05	2.158845e-05	
11.765052	1.564869e-05	3.300461e-06	1.367588e-05	2.148643e-05	
11.766052	1.586909e-05	3.380714e-06	1.372855e-05	2.138195e-05	
11.767052	1.607520e-05	3.463856e-06	1.377041e-05	2.127495e-05	
11.768052	1.626634e-05	3.549865e-06	1.380110e-05	2.116537e-05	
11.769052	1.644178e-05	3.638719e-06	1.382026e-05	2.105315e-05	
11.770052	1.660084e-05	3.730395e-06	1.382753e-05	2.093821e-05	
11.771053	1.674280e-05	3.824871e-06	1.382253e-05	2.082050e-05	
11.772053	1.686697e-05	3.922125e-06	1.380490e-05	2.069996e-05	
11.773053	1.697264e-05	4.022135e-06	1.377429e-05	2.057651e-05	
11.774053	1.705911e-05	4.124879e-06	1.373033e-05	2.045010e-05	
11.775053	1.712571e-05	4.230334e-06	1.367267e-05	2.032068e-05	
11.776053	1.717243e-05	4.338505e-06	1.360140e-05	2.018826e-05	
11.777053	1.719985e-05	4.449415e-06	1.351698e-05	2.005297e-05	
11.778054	1.720858e-05	4.563088e-06	1.341991e-05	1.991492e-05	
11.779054	1.719921e-05	4.679549e-06	1.331066e-05	1.977423e-05	
11.780054	1.717234e-05	4.798822e-06	1.318971e-05	1.963102e-05	
11.781054	1.712858e-05	4.920932e-06	1.305755e-05	1.948539e-05	
11.782054	1.706852e-05	5.045903e-06	1.291464e-05	1.933748e-05	
11.783054	1.699276e-05	5.173759e-06	1.276148e-05	1.918740e-05	
11.784054	1.690192e-05	5.304525e-06	1.259855e-05	1.903526e-05	
11.785055	1.679657e-05	5.438226e-06	1.242632e-05	1.888118e-05	
11.786055	1.667733e-05	5.574886e-06	1.224528e-05	1.872527e-05	
11.787055	1.654480e-05	5.714529e-06	1.205591e-05	1.856766e-05	
11.788055	1.639958e-05	5.857179e-06	1.185869e-05	1.840846e-05	
11.789055	1.624226e-05	6.002862e-06	1.165409e-05	1.824779e-05	
11.790055	1.607346e-05	6.151602e-06	1.144261e-05	1.808576e-05	
11.791056	1.589376e-05	6.303422e-06	1.122472e-05	1.792249e-05	
11.792056	1.570376e-05	6.458349e-06	1.100090e-05	1.775810e-05	
11.793056	1.550408e-05	6.616405e-06	1.077163e-05	1.759270e-05	
11.794056	1.529531e-05	6.777615e-06	1.053740e-05	1.742642e-05	
11.795056	1.507805e-05	6.942005e-06	1.029868e-05	1.725936e-05	
11.796056	1.485289e-05	7.109598e-06	1.005596e-05	1.709165e-05	
11.797056	1.462045e-05	7.280418e-06	9.809720e-06	1.692340e-05	
11.798057	1.438132e-05	7.454491e-06	9.560435e-06	1.675473e-05	
11.799057	1.413610e-05	7.631840e-06	9.308588e-06	1.658575e-05	
11.800057	1.388540e-05	7.812491e-06	9.054662e-06	1.641659e-05	
11.801057	1.362980e-05	7.996467e-06	8.799136e-06	1.624736e-05	
11.802057	1.336992e-05	8.183793e-06	8.542491e-06	1.607817e-05	
11.803057	1.310635e-05	8.374494e-06	8.285210e-06	1.590914e-05	
11.804057	1.283970e-05	8.568593e-06	8.027771e-06	1.574039e-05	
11.805058	1.257056e-05	8.766116e-06	7.770657e-06	1.557204e-05	
11.806058	1.229953e-05	8.967087e-06	7.514348e-06	1.540421e-05	
11.807058	1.202722e-05	9.171530e-06	7.259326e-06	1.523700e-05	
11.808058	1.175423e-05	9.379469e-06	7.006070e-06	1.507054e-05	
11.809058	1.148115e-05	9.590930e-06	6.755063e-06	1.490494e-05	
11.810058	1.120859e-05	9.805936e-06	6.506784e-06	1.474032e-05	
11.811059	1.093714e-05	1.002451e-05	6.261715e-06	1.457680e-05	
11.812059	1.066741e-05	1.024668e-05	6.020337e-06	1.441450e-05	
11.813059	1.040000e-05	1.047247e-05	5.783130e-06	1.425352e-05	
11.814059	1.013551e-05	1.070191e-05	5.550576e-06	1.409399e-05	
11.815059	9.874536e-06	1.093501e-05	5.323155e-06	1.393603e-05	
11.816059	9.617680e-06	1.117180e-05	5.101349e-06	1.377974e-05	
11.817059	9.365544e-06	1.141231e-05	4.885638e-06	1.362526e-05	
11.818060	9.118728e-06	1.165656e-05	4.676503e-06	1.347269e-05	
11.819060	8.877831e-06	1.190458e-05	4.474426e-06	1.332215e-05	
11.820060	8.643456e-06	1.215638e-05	4.279886e-06	1.317376e-05	
11.821060	8.416201e-06	1.241200e-05	4.093365e-06	1.302764e-05	
11.822060	8.196668e-06	1.267146e-05	3.915344e-06	1.288389e-05	
11.823060	7.985457e-06	1.293479e-05	3.746304e-06	1.274265e-05	
11.824060	7.783168e-06	1.320200e-05	3.586725e-06	1.260402e-05	
11.825061	7.590378e-06	1.347312e-05	3.437069e-06	1.246812e-05	
11.826061	7.407235e-06	1.374823e-05	3.297428e-06	1.233498e-05	
11.827061	7.233510e-06	1.402742e-05	3.167574e-06	1.220456e-05	
11.828061	7.068965e-06	1.431079e-05	3.047268e-06	1.207684e-05	
11.829061	6.913357e-06	1.459846e-05	2.936270e-06	1.195176e-05	
11.830061	6.766447e-06	1.489051e-05	2.834342e-06	1.182929e-05	
11.831062	6.627995e-06	1.518706e-05	2.741244e-06	1.170939e-05	
11.832062	6.497760e-06	1.548821e-05	2.656737e-06	1.159202e-05	
11.833062	6.375502e-06	1.579406e-05	2.580581e-06	1.147715e-05	
11.834062	6.260981e-06	1.610470e-05	2.512539e-06	1.136474e-05	
11.835062	6.153955e-06	1.642026e-05	2.452370e-06	1.125474e-05	
11.836062	6.054185e-06	1.674082e-05	2.399835e-06	1.114713e-05	
11.837062	5.961431e-06	1.706650e-05	2.354695e-06	1.104185e-05	
11.838063	5.875452e-06	1.739739e-05	2.316711e-06	1.093887e-05	
11.839063	5.796007e-06	1.773359e-05	2.285644e-06	1.083816e-05	
11.840063	5.722857e-06	1.807522e-05	2.261254e-06	1.073968e-05	
11.841063	5.655761e-06	1.842237e-05	2.243302e-06	1.064338e-05	
11.842063	5.594478e-06	1.877514e-05	2.231550e-06	1.054923e-05	
11.843063	5.538769e-06	1.913365e-05	2.225758e-06	1.045719e-05	
11.844063	5.488393e-06	1.949798e-05	2.225686e-06	1.036723e-05	
11.845064	5.443109e-06	1.986825e-05	2.231096e-06	1.027929e-05	
11.846064	5.402678e-06	2.024456e-05	2.241748e-06	1.019335e-05	
11.847064	5.366859e-06	2.062700e-05	2.257403e-06	1.010937e-05	
11.848064	5.335411e-06	2.101569e-05	2.277822e-06	1.002731e-05	
11.849064	5.308095e-06	2.141072e-05	2.302767e-06	9.947125e-06	
11.850064	5.284669e-06	2.181221e-05	2.331996e-06	9.868782e-06	
11.851065	5.264894e-06	2.222024e-05	2.365272e-06	9.792242e-06	
11.852065	5.248529e-06	2.263493e-05	2.402356e-06	9.717466e-06	
11.853065	5.235334e-06	2.305638e-05	2.443007e-06	9.644416e-06	
11.854065	5.225069e-06	2.348468e-05	2.486987e-06	9.573054e-06	
11.855065	5.217492e-06	2.391995e-05	2.534057e-06	9.503341e-06	
11.856065	5.212365e-06	2.436228e-05	2.583978e-06	9.435239e-06	
11.857065	5.209446e-06	2.481179e-05	2.636509e-06	9.368709e-06	
11.858066	5.208495e-06	2.526856e-05	2.691413e-06	9.303712e-06	
11.859066	5.209272e-06	2.573271e-05	2.748449e-06	9.240211e-06	
11.860066	5.211536e-06	2.620433e-05	2.807380e-06	9.178167e-06	
11.861066	5.215047e-06	2.668354e-05	2.867964e-06	9.117542e-06	
11.862066	5.219565e-06	2.717043e-05	2.929965e-06	9.058296e-06	
11.863066	5.224849e-06	2.766510e-05	2.993141e-06	9.000393e-06	
11.864066	5.230660e-06	2.816766e-05	3.057254e-06	8.943792e-06	
11.865067	5.236756e-06	2.867821e-05	3.122065e-06	8.888457e-06	
11.866067	5.242897e-06	2.919686e-05	3.187335e-06	8.834348e-06	
11.867067	5.248843e-06	2.972371e-05	3.252823e-06	8.781426e-06	
11.868067	5.254354e-06	3.025885e-05	3.318293e-06	8.729655e-06	
11.869067	5.259189e-06	3.080240e-05	3.383503e-06	8.678994e-06	
11.870067	5.263108e-06	3.135445e-05	3.448214e-06	8.629406e-06	
11.871068	5.265871e-06	3.191511e-05	3.512189e-06	8.580852e-06	
11.872068	5.267237e-06	3.248449e-05	3.575187e-06	8.533295e-06	
11.873068	5.266966e-06	3.306267e-05	3.636969e-06	8.486694e-06	
11.874068	5.264817e-06	3.364978e-05	3.697296e-06	8.441013e-06	
11.875068	5.260561e-06	3.424589e-05	3.755934e-06	8.396213e-06	
11.876068	5.254159e-06	3.485085e-05	3.812734e-06	8.352293e-06	
11.877068	5.245735e-06	3.546429e-05	3.867620e-06	8.309276e-06	
11.878069	5.235418e-06	3.608583e-05	3.920520e-06	8.267188e-06	
11.879069	5.223338e-06	3.671510e-05	3.971360e-06	8.226055e-06	
11.880069	5.209623e-06	3.735172e-05	4.020067e-06	8.185901e-06	
11.881069	5.194403e-06	3.799532e-05	4.066567e-06	8.146753e-06	
11.882069	5.177807e-06	3.864551e-05	4.110789e-06	8.108636e-06	
11.883069	5.159965e-06	3.930194e-05	4.152658e-06	8.071576e-06	
11.884069	5.141006e-06	3.996421e-05	4.192102e-06	8.035598e-06	
11.885070	5.121059e-06	4.063196e-05	4.229047e-06	8.000728e-06	
11.886070	5.100253e-06	4.130480e-05	4.263421e-06	7.966991e-06	
11.887070	5.078718e-06	4.198236e-05	4.295149e-06	7.934413e-06	
11.888070	5.056583e-06	4.266428e-05	4.324160e-06	7.903019e-06	
11.889070	5.033977e-06	4.335016e-05	4.350380e-06	7.872835e-06	
11.890070	5.011030e-06	4.403963e-05	4.373735e-06	7.843887e-06	
11.891071	4.987871e-06	4.473233e-05	4.394153e-06	7.816199e-06	
11.892071	4.964629e-06	4.542787e-05	4.411561e-06	7.789798e-06	
11.893071	4.941433e-06	4.612587e-05	4.425885e-06	7.764709e-06	
11.894071	4.918412e-06	4.682597e-05	4.437053e-06	7.740958e-06	
11.895071	4.895697e-06	4.752778e-05	4.444990e-06	7.718570e-06	
11.896071	4.873416e-06	4.823094e-05	4.449625e-06	7.697570e-06	
11.897071	4.851699e-06	4.893505e-05	4.450884e-06	7.677985e-06	
11.898072	4.830674e-06	4.963976e-05	4.448693e-06	7.659839e-06	
11.899072	4.810472e-06	5.034468e-05	4.442980e-06	7.643159e-06	
11.900072	4.791221e-06	5.104944e-05	4.433672e-06	7.627969e-06	
11.901072	4.773050e-06	5.175365e-05	4.420695e-06	7.614296e-06	
11.902072	4.756090e-06	5.245696e-05	4.403976e-06	7.602165e-06	
11.903072	4.740469e-06	5.315897e-05	4.383443e-06	7.591601e-06	
11.904072	4.726316e-06	5.385932e-05	4.359022e-06	7.582630e-06	
11.905073	4.713761e-06	5.455762e-05	4.330640e-06	7.575278e-06	
11.906073	4.702933e-06	5.525351e-05	4.298223e-06	7.569569e-06	
11.907073	4.693962e-06	5.594660e-05	4.261699e-06	7.565531e-06	
11.908073	4.686976e-06	5.663653e-05	4.220995e-06	7.563187e-06	
11.909073	4.682106e-06	5.732291e-05	4.176037e-06	7.562564e-06	
11.910073	4.679479e-06	5.800537e-05	4.126753e-06	7.563687e-06	
11.911074	4.679226e-06	5.868353e-05	4.073068e-06	7.566583e-06	
11.912074	4.681476e-06	5.935703e-05	4.014911e-06	7.571275e-06	
11.913074	4.686358e-06	6.002547e-05	3.952208e-06	7.577790e-06	
11.914074	4.694001e-06	6.068849e-05	3.884885e-06	7.586154e-06	
11.915074	4.704535e-06	6.134572e-05	3.812871e-06	7.596391e-06	
11.916074	4.718089e-06	6.199676e-05	3.736090e-06	7.608528e-06	
11.917074	4.734792e-06	6.264126e-05	3.654472e-06	7.622590e-06	
11.918075	4.754774e-06	6.327883e-05	3.567941e-06	7.638602e-06	
11.919075	4.778164e-06	6.390910e-05	3.476426e-06	7.656591e-06	
11.920075	4.805090e-06	6.453169e-05	3.379853e-06	7.676581e-06	
11.921075	4.835683e-06	6.514622e-05	3.278149e-06	7.698598e-06	
11.922075	4.870072e-06	6.575233e-05	3.171240e-06	7.722668e-06	
11.923075	4.908385e-06	6.634963e-05	3.059055e-06	7.748817e-06	
11.924075	4.950753e-06	6.693775e-05	2.941519e-06	7.777069e-06	
11.925076	4.997294e-06	6.751631e-05	2.818582e-06	7.807446e-06	
11.926076	5.047955e-06	6.808473e-05	2.690588e-06	7.839908e-06	
11.927076	5.102535e-06	6.864232e-05	2.558211e-06	7.874359e-06	
11.928076	5.160831e-06	6.918836e-05	2.422134e-06	7.910702e-06	
11.929076	5.222639e-06	6.972214e-05	2.283041e-06	7.948843e-06	
11.930076	5.287755e-06	7.024294e-05	2.141616e-06	7.988683e-06	
11.931077	5.355974e-06	7.075006e-05	1.998544e-06	8.030126e-06	
11.932077	5.427093e-06	7.124277e-05	1.854508e-06	8.073077e-06	
11.933077	5.500907e-06	7.172037e-05	1.710192e-06	8.117439e-06	
11.934077	5.577212e-06	7.218214e-05	1.566281e-06	8.163115e-06	
11.935077	5.655805e-06	7.262737e-05	1.423457e-06	8.210008e-06	
11.936077	5.736481e-06	7.305535e-05	1.282406e-06	8.258023e-06	
11.937077	5.819037e-06	7.346536e-05	1.143810e-06	8.307064e-06	
11.938078	5.903268e-06	7.385670e-05	1.008355e-06	8.357032e-06	
11.939078	5.988970e-06	7.422864e-05	8.767239e-07	8.407833e-06	
11.940078	6.075939e-06	7.458048e-05	7.496005e-07	8.459369e-06	
11.941078	6.163971e-06	7.491150e-05	6.276691e-07	8.511545e-06	
11.942078	6.252862e-06	7.522099e-05	5.116136e-07	8.564263e-06	
11.943078	6.342408e-06	7.550823e-05	4.021179e-07	8.617428e-06	
11.944078	6.432405e-06	7.577252e-05	2.998661e-07	8.670943e-06	
11.945079	6.522649e-06	7.601314e-05	2.055420e-07	8.724711e-06	
11.946079	6.612936e-06	7.622938e-05	1.198297e-07	8.778637e-06	
11.947079	6.703061e-06	7.642053e-05	4.341307e-08	8.832623e-06	
11.948079	6.792821e-06	7.658586e-05	-2.302385e-08	8.886573e-06	
11.949079	6.882012e-06	7.672468e-05	-7.879712e-08	8.940392e-06	
11.950079	6.970429e-06	7.683626e-05	-1.232228e-07	8.993981e-06	
11.951080	7.057869e-06	7.691989e-05	-1.556169e-07	9.047246e-06	
11.952080	7.144127e-06	7.697487e-05	-1.752954e-07	9.100089e-06	
11.953080	7.229000e-06	7.700047e-05	-1.815744e-07	9.152414e-06	
11.954080	7.312283e-06	7.699598e-05	-1.737700e-07	9.204125e-06	
11.955080	7.393772e-06	7.696070e-05	-1.511981e-07	9.255125e-06	
11.956080	7.473263e-06	7.689390e-05	-1.131748e-07	9.305317e-06	
11.957080	7.550553e-06	7.679488e-05	-5.901615e-08	9.354607e-06	
11.958081	7.625437e-06	7.666293e-05	1.196184e-08	9.402896e-06	
11.959081	7.697711e-06	7.649732e-05	1.004431e-07	9.450088e-06	
11.960081	7.767171e-06	7.629735e-05	2.071117e-07	9.496088e-06	
11.961081	7.833613e-06	7.606230e-05	3.326515e-07	9.540798e-06	
11.962081	7.896833e-06	7.579147e-05	4.777465e-07	9.584123e-06	
11.963081	7.956627e-06	7.548413e-05	6.430806e-07	9.625965e-06	
11.964081	8.012791e-06	7.513958e-05	8.293379e-07	9.666229e-06	
11.965082	8.065120e-06	7.475710e-05	1.037202e-06	9.704817e-06	
11.966082	8.113412e-06	7.433598e-05	1.267358e-06	9.741634e-06	
11.967082	8.157460e-06	7.387550e-05	1.520488e-06	9.776583e-06	
11.968082	8.197063e-06	7.337496e-05	1.797278e-06	9.809568e-06	
11.969082	8.232015e-06	7.283364e-05	2.098410e-06	9.840492e-06	
11.970082	8.262112e-06	7.225082e-05	2.424569e-06	9.869259e-06	
11.971082	8.287151e-06	7.162580e-05	2.776439e-06	9.895772e-06	
11.972083	8.306928e-06	7.095786e-05	3.154704e-06	9.919935e-06	
11.973083	8.321237e-06	7.024630e-05	3.560048e-06	9.941651e-06	
11.974083	8.329876e-06	6.949038e-05	3.993155e-06	9.960825e-06	
11.975083	8.332653e-06	6.868949e-05	4.454664e-06	9.977364e-06	
11.976083	8.329579e-06	6.784439e-05	4.944486e-06	9.991258e-06	
11.977083	8.320835e-06	6.695698e-05	5.461930e-06	1.000257e-05	
11.978084	8.306604e-06	6.602920e-05	6.006285e-06	1.001135e-05	
11.979084	8.287073e-06	6.506298e-05	6.576844e-06	1.001767e-05	
11.980084	8.262426e-06	6.406026e-05	7.172896e-06	1.002157e-05	
11.981084	8.232848e-06	6.302299e-05	7.793732e-06	1.002314e-05	
11.982084	8.198524e-06	6.195309e-05	8.438644e-06	1.002241e-05	
11.983084	8.159639e-06	6.085251e-05	9.106921e-06	1.001946e-05	
11.984084	8.116377e-06	5.972319e-05	9.797855e-06	1.001434e-05	
11.985085	8.068924e-06	5.856705e-05	1.051074e-05	1.000712e-05	
11.986085	8.017464e-06	5.738605e-05	1.124486e-05	9.997844e-06	
11.987085	7.962182e-06	5.618211e-05	1.199950e-05	9.986584e-06	
11.988085	7.903263e-06	5.495718e-05	1.277397e-05	9.973395e-06	
11.989085	7.840893e-06	5.371319e-05	1.356755e-05	9.958339e-06	
11.990085	7.775255e-06	5.245208e-05	1.437953e-05	9.941474e-06	
11.991085	7.706535e-06	5.117579e-05	1.520920e-05	9.922862e-06	
11.992086	7.634918e-06	4.988625e-05	1.605586e-05	9.902561e-06	
11.993086	7.560588e-06	4.858541e-05	1.691879e-05	9.880632e-06	
11.994086	7.483731e-06	4.727520e-05	1.779728e-05	9.857134e-06	
11.995086	7.404530e-06	4.595756e-05	1.869063e-05	9.832128e-06	
11.996086	7.323172e-06	4.463443e-05	1.959812e-05	9.805673e-06	
11.997086	7.239842e-06	4.330774e-05	2.051905e-05	9.777829e-06	
11.998087	7.154723e-06	4.197943e-05	2.145271e-05	9.748655e-06	
11.999087	7.068000e-06	4.065144e-05	2.239838e-05	9.718213e-06	
12.000087	6.979860e-06	3.932571e-05	2.335537e-05	9.686561e-06	
12.001087	6.890486e-06	3.800418e-05	2.432295e-05	9.653760e-06	
12.002087	6.800063e-06	3.668878e-05	2.530043e-05	9.619869e-06	
12.003087	6.708777e-06	3.538145e-05	2.628708e-05	9.584948e-06	
12.004087	6.616812e-06	3.408413e-05	2.728221e-05	9.549057e-06	
12.005088	6.524354e-06	3.279876e-05	2.828510e-05	9.512256e-06	
12.006088	6.431586e-06	3.152727e-05	2.929504e-05	9.474605e-06	
12.007088	6.338694e-06	3.027160e-05	3.031133e-05	9.436164e-06	
12.008088	6.245862e-06	2.903369e-05	3.133326e-05	9.396992e-06	
12.009088	6.153277e-06	2.781548e-05	3.236010e-05	9.357150e-06	
12.010088	6.061122e-06	2.661890e-05	3.339117e-05	9.316697e-06	
12.011088	5.969582e-06	2.544590e-05	3.442574e-05	9.275693e-06	
12.012089	5.878842e-06	2.429841e-05	3.546311e-05	9.234198e-06	
12.013089	5.789088e-06	2.317837e-05	3.650257e-05	9.192271e-06	
12.014089	5.700504e-06	2.208771e-05	3.754341e-05	9.149974e-06	
12.015089	5.613274e-06	2.102838e-05	3.858492e-05	9.107365e-06	
12.016089	5.527584e-06	2.000231e-05	3.962639e-05	9.064504e-06	
12.017089	5.443619e-06	1.901143e-05	4.066711e-05	9.021452e-06	
12.018090	5.361564e-06	1.805770e-05	4.170637e-05	8.978268e-06	
12.019090	5.281603e-06	1.714304e-05	4.274347e-05	8.935012e-06	
12.020090	5.203921e-06	1.626939e-05	4.377769e-05	8.891743e-06	
12.021090	5.128703e-06	1.543869e-05	4.480833e-05	8.848523e-06	
12.022090	5.056135e-06	1.465288e-05	4.583467e-05	8.805410e-06	
12.023090	4.986400e-06	1.391390e-05	4.685601e-05	8.762464e-06	
12.024090	4.919685e-06	1.322368e-05	4.787164e-05	8.719746e-06	
12.025091	4.856165e-06	1.258406e-05	4.888085e-05	8.677315e-06	
12.026091	4.795900e-06	1.199520e-05	4.988306e-05	8.635233e-06	
12.027091	4.738850e-06	1.145594e-05	5.087779e-05	8.593563e-06	
12.028091	4.684974e-06	1.096505e-05	5.186455e-05	8.552367e-06	
12.029091	4.634231e-06	1.052133e-05	5.284285e-05	8.511708e-06	
12.030091	4.586579e-06	1.012355e-05	5.381222e-05	8.471650e-06	
12.031091	4.541977e-06	9.770514e-06	5.477216e-05	8.432255e-06	
12.032092	4.500383e-06	9.460994e-06	5.572219e-05	8.393586e-06	
12.033092	4.461756e-06	9.193780e-06	5.666183e-05	8.355706e-06	
12.034092	4.426055e-06	8.967660e-06	5.759059e-05	8.318678e-06	
12.035092	4.393238e-06	8.781417e-06	5.850800e-05	8.282564e-06	
12.036092	4.363263e-06	8.633839e-06	5.941355e-05	8.247428e-06	
12.037092	4.336089e-06	8.523712e-06	6.030677e-05	8.213333e-06	
12.038093	4.311676e-06	8.449820e-06	6.118718e-05	8.180340e-06	
12.039093	4.289980e-06	8.410951e-06	6.205429e-05	8.148514e-06	
12.040093	4.270962e-06	8.405890e-06	6.290761e-05	8.117917e-06	
12.041093	4.254579e-06	8.433422e-06	6.374667e-05	8.088612e-06	
12.042093	4.240790e-06	8.492335e-06	6.457097e-05	8.060662e-06	
12.043093	4.229554e-06	8.581413e-06	6.538003e-05	8.034129e-06	
12.044093	4.220829e-06	8.699443e-06	6.617337e-05	8.009077e-06	
12.045094	4.214574e-06	8.845210e-06	6.695050e-05	7.985568e-06	
12.046094	4.210747e-06	9.017501e-06	6.771094e-05	7.963665e-06	
12.047094	4.209307e-06	9.215102e-06	6.845420e-05	7.943432e-06	
12.048094	4.210212e-06	9.436798e-06	6.917980e-05	7.924931e-06	
12.049094	4.213422e-06	9.681375e-06	6.988725e-05	7.908225e-06	
12.050094	4.218894e-06	9.947619e-06	7.057607e-05	7.893376e-06	
12.051094	4.226588e-06	1.023432e-05	7.124578e-05	7.880449e-06	
12.052095	4.236461e-06	1.054025e-05	7.189589e-05	7.869504e-06	
12.053095	4.248473e-06	1.086421e-05	7.252591e-05	7.860606e-06	
12.054095	4.262582e-06	1.120499e-05	7.313537e-05	7.853818e-06	
12.055095	4.278746e-06	1.156136e-05	7.372377e-05	7.849202e-06	
12.056095	4.296924e-06	1.193211e-05	7.429063e-05	7.846820e-06	
12.057095	4.317075e-06	1.231603e-05	7.483547e-05	7.846737e-06	
12.058096	4.339157e-06	1.271190e-05	7.535781e-05	7.849015e-06	
12.059096	4.363129e-06	1.311852e-05	7.585715e-05	7.853716e-06	
12.060096	4.388950e-06	1.353466e-05	7.633301e-05	7.860903e-06	
12.061096	4.416577e-06	1.395911e-05	7.678492e-05	7.870641e-06	
12.062096	4.445970e-06	1.439067e-05	7.721237e-05	7.882990e-06	
12.063096	4.477087e-06	1.482810e-05	7.761490e-05	7.898015e-06	
12.064096	4.509886e-06	1.527021e-05	7.799201e-05	7.915777e-06	
12.065097	4.544327e-06	1.571577e-05	7.834323e-05	7.936341e-06	
12.066097	4.580368e-06	1.616358e-05	7.866806e-05	7.959768e-06	
12.067097	4.617967e-06	1.661241e-05	7.896602e-05	7.986123e-06	
12.068097	4.657083e-06	1.706105e-05	7.923663e-05	8.015466e-06	
12.069097	4.697674e-06	1.750830e-05	7.947940e-05	8.047862e-06	
12.070097	4.739700e-06	1.795293e-05	7.969384e-05	8.083374e-06	
12.071097	4.783118e-06	1.839373e-05	7.987949e-05	8.122063e-06	
12.072098	4.827887e-06	1.882949e-05	8.003583e-05	8.163994e-06	
12.073098	4.873967e-06	1.925900e-05	8.016241e-05	8.209229e-06	
12.074098	4.921314e-06	1.968103e-05	8.025872e-05	8.257830e-06	
12.075098	4.969889e-06	2.009443e-05	8.032435e-05	8.309855e-06	
12.076098	5.019647e-06	2.049895e-05	8.035987e-05	8.365262e-06	
12.077098	5.070542e-06	2.089504e-05	8.036662e-05	8.423930e-06	
12.078099	5.122529e-06	2.128316e-05	8.034599e-05	8.485739e-06	
12.079099	5.175564e-06	2.166379e-05	8.029934e-05	8.550567e-06	
12.080099	5.229599e-06	2.203739e-05	8.022804e-05	8.618291e-06	
12.081099	5.284590e-06	2.240445e-05	8.013348e-05	8.688791e-06	
12.082099	5.340491e-06	2.276543e-05	8.001702e-05	8.761945e-06	
12.083099	5.397257e-06	2.312081e-05	7.988003e-05	8.837630e-06	
12.084099	5.454842e-06	2.347105e-05	7.972389e-05	8.915725e-06	
12.085100	5.513201e-06	2.381662e-05	7.954997e-05	8.996109e-06	
12.086100	5.572289e-06	2.415800e-05	7.935965e-05	9.078660e-06	
12.087100	5.632059e-06	2.449566e-05	7.915429e-05	9.163255e-06	
12.088100	5.692466e-06	2.483007e-05	7.893528e-05	9.249774e-06	
12.089100	5.753465e-06	2.516170e-05	7.870397e-05	9.338095e-06	
12.090100	5.815010e-06	2.549102e-05	7.846176e-05	9.428096e-06	
12.091100	5.877056e-06	2.581850e-05	7.821000e-05	9.519654e-06	
12.092101	5.939558e-06	2.614462e-05	7.795007e-05	9.612650e-06	
12.093101	6.002469e-06	2.646985e-05	7.768335e-05	9.706960e-06	
12.094101	6.065745e-06	2.679465e-05	7.741120e-05	9.802463e-06	
12.095101	6.129340e-06	2.711950e-05	7.713501e-05	9.899038e-06	
12.096101	6.193207e-06	2.744487e-05	7.685614e-05	9.996562e-06	
12.097101	6.257303e-06	2.777123e-05	7.657596e-05	1.009491e-05	
12.098102	6.321581e-06	2.809905e-05	7.629586e-05	1.019397e-05	
12.099102	6.385997e-06	2.842880e-05	7.601719e-05	1.029362e-05	
12.100102	6.450503e-06	2.876096e-05	7.574134e-05	1.039372e-05	
12.101102	6.515056e-06	2.909600e-05	7.546968e-05	1.049417e-05	
12.102102	6.579609e-06	2.943438e-05	7.520358e-05	1.059484e-05	
12.103102	6.644116e-06	2.977658e-05	7.494441e-05	1.069560e-05	
12.104102	6.708534e-06	3.012307e-05	7.469355e-05	1.079634e-05	
12.105103	6.772815e-06	3.047432e-05	7.445237e-05	1.089694e-05	
12.106103	6.836915e-06	3.083080e-05	7.422225e-05	1.099726e-05	
12.107103	6.900788e-06	3.119298e-05	7.400454e-05	1.109720e-05	
12.108103	6.964388e-06	3.156134e-05	7.380064e-05	1.119663e-05	
12.109103	7.027670e-06	3.193635e-05	7.361191e-05	1.129543e-05	
12.110103	7.090589e-06	3.231847e-05	7.343972e-05	1.139347e-05	
12.111103	7.153099e-06	3.270818e-05	7.328545e-05	1.149063e-05	
12.112104	7.215155e-06	3.310595e-05	7.315047e-05	1.158680e-05	
12.113104	7.276710e-06	3.351225e-05	7.303615e-05	1.168185e-05	
12.114104	7.337720e-06	3.392756e-05	7.294387e-05	1.177566e-05	
12.115104	7.398140e-06	3.435233e-05	7.287499e-05	1.186810e-05	
12.116104	7.457922e-06	3.478705e-05	7.283090e-05	1.195906e-05	
12.117104	7.517023e-06	3.523219e-05	7.281296e-05	1.204842e-05	
12.118105	7.575397e-06	3.568821e-05	7.282255e-05	1.213604e-05	
12.119105	7.632998e-06	3.615560e-05	7.286105e-05	1.222182e-05	
12.120105	7.689780e-06	3.663481e-05	7.292981e-05	1.230563e-05	
12.121105	7.745699e-06	3.712632e-05	7.303022e-05	1.238734e-05	
12.122105	7.800708e-06	3.763060e-05	7.316365e-05	1.246684e-05	
12.123105	7.854762e-06	3.814813e-05	7.333147e-05	1.254400e-05	
12.124105	7.907816e-06	3.867937e-05	7.353506e-05	1.261871e-05	
12.125106	7.959834e-06	3.922475e-05	7.377568e-05	1.269084e-05	
12.126106	8.010914e-06	3.978396e-05	7.405295e-05	1.276037e-05	
12.127106	8.061261e-06	4.035609e-05	7.436524e-05	1.282735e-05	
12.128106	8.111084e-06	4.094026e-05	7.471086e-05	1.289182e-05	
12.129106	8.160589e-06	4.153557e-05	7.508813e-05	1.295383e-05	
12.130106	8.209985e-06	4.214110e-05	7.549539e-05	1.301344e-05	
12.131106	8.259480e-06	4.275596e-05	7.593094e-05	1.307068e-05	
12.132107	8.309280e-06	4.337925e-05	7.639312e-05	1.312560e-05	
12.133107	8.359595e-06	4.401006e-05	7.688025e-05	1.317826e-05	
12.134107	8.410630e-06	4.464750e-05	7.739064e-05	1.322869e-05	
12.135107	8.462595e-06	4.529066e-05	7.792261e-05	1.327696e-05	
12.136107	8.515696e-06	4.593863e-05	7.847450e-05	1.332309e-05	
12.137107	8.570142e-06	4.659052e-05	7.904463e-05	1.336715e-05	
12.138108	8.626140e-06	4.724543e-05	7.963131e-05	1.340917e-05	
12.139108	8.683898e-06	4.790245e-05	8.023286e-05	1.344921e-05	
12.140108	8.743624e-06	4.856068e-05	8.084762e-05	1.348731e-05	
12.141108	8.805524e-06	4.921922e-05	8.147390e-05	1.352352e-05	
12.142108	8.869808e-06	4.987717e-05	8.211002e-05	1.355790e-05	
12.143108	8.936682e-06	5.053363e-05	8.275430e-05	1.359047e-05	
12.144108	9.006355e-06	5.118769e-05	8.340508e-05	1.362130e-05	
12.145109	9.079033e-06	5.183845e-05	8.406066e-05	1.365043e-05	
12.146109	9.154926e-06	5.248501e-05	8.471938e-05	1.367791e-05	
12.147109	9.234240e-06	5.312647e-05	8.537955e-05	1.370378e-05	
12.148109	9.317182e-06	5.376193e-05	8.603950e-05	1.372809e-05	
12.149109	9.403962e-06	5.439048e-05	8.669755e-05	1.375090e-05	
12.150109	9.494786e-06	5.501123e-05	8.735202e-05	1.377224e-05	
12.151109	9.589863e-06	5.562327e-05	8.800123e-05	1.379217e-05	
12.152110	9.689399e-06	5.622569e-05	8.864350e-05	1.381072e-05	
12.153110	9.793602e-06	5.681760e-05	8.927716e-05	1.382796e-05	
12.154110	9.902681e-06	5.739810e-05	8.990054e-05	1.384393e-05	
12.155110	1.001684e-05	5.796628e-05	9.051194e-05	1.385867e-05	
12.156110	1.013630e-05	5.852125e-05	9.110970e-05	1.387223e-05	
12.157110	1.026125e-05	5.906209e-05	9.169213e-05	1.388465e-05	
12.158110	1.039190e-05	5.958791e-05	9.225756e-05	1.389600e-05	
12.159111	1.052847e-05	6.009781e-05	9.280431e-05	1.390631e-05	
12.160111	1.067117e-05	6.059088e-05	9.333070e-05	1.391563e-05	
12.161111	1.082019e-05	6.106623e-05	9.383505e-05	1.392401e-05	
12.162111	1.097575e-05	6.152295e-05	9.431569e-05	1.393150e-05	
12.163111	1.113805e-05	6.196013e-05	9.477094e-05	1.393813e-05	
12.164111	1.130730e-05	6.237688e-05	9.519912e-05	1.394397e-05	
12.165112	1.148372e-05	6.277230e-05	9.559855e-05	1.394906e-05	
12.166112	1.166750e-05	6.314548e-05	9.596756e-05	1.395345e-05	
12.167112	1.185886e-05	6.349552e-05	9.630446e-05	1.395717e-05	
12.168112	1.205800e-05	6.382152e-05	9.660759e-05	1.396029e-05	
12.169112	1.226513e-05	6.412258e-05	9.687525e-05	1.396285e-05	
12.170112	1.248046e-05	6.439779e-05	9.710578e-05	1.396489e-05	
12.171112	1.270420e-05	6.464626e-05	9.729749e-05	1.396646e-05	
12.172113	1.293654e-05	6.486708e-05	9.744870e-05	1.396761e-05	
12.173113	1.317772e-05	6.505935e-05	9.755775e-05	1.396839e-05	
12.174113	1.342792e-05	6.522217e-05	9.762295e-05	1.396885e-05	
12.175113	1.368733e-05	6.535470e-05	9.764277e-05	1.396903e-05	
12.176113	1.395580e-05	6.545694e-05	9.761788e-05	1.396898e-05	
12.177113	1.423291e-05	6.552958e-05	9.755060e-05	1.396877e-05	
12.178113	1.451824e-05	6.557329e-05	9.744331e-05	1.396846e-05	
12.179114	1.481136e-05	6.558877e-05	9.729839e-05	1.396811e-05	
12.180114	1.511186e-05	6.557670e-05	9.711819e-05	1.396776e-05	
12.181114	1.541931e-05	6.553776e-05	9.690511e-05	1.396750e-05	
12.182114	1.573328e-05	6.547265e-05	9.666150e-05	1.396737e-05	
12.183114	1.605336e-05	6.538206e-05	9.638974e-05	1.396743e-05	
12.184114	1.637912e-05	6.526665e-05	9.609220e-05	1.396774e-05	
12.185115	1.671014e-05	6.512713e-05	9.577126e-05	1.396837e-05	
12.186115	1.704599e-05	6.496418e-05	9.542929e-05	1.396937e-05	
12.187115	1.738626e-05	6.477849e-05	9.506866e-05	1.397080e-05	
12.188115	1.773052e-05	6.457074e-05	9.469175e-05	1.397273e-05	
12.189115	1.807835e-05	6.434162e-05	9.430092e-05	1.397520e-05	
12.190115	1.842932e-05	6.409182e-05	9.389854e-05	1.397829e-05	
12.191115	1.878301e-05	6.382201e-05	9.348700e-05	1.398204e-05	
12.192116	1.913900e-05	6.353290e-05	9.306866e-05	1.398653e-05	
12.193116	1.949687e-05	6.322516e-05	9.264590e-05	1.399180e-05	
12.194116	1.985620e-05	6.289949e-05	9.222108e-05	1.399792e-05	
12.195116	2.021655e-05	6.255656e-05	9.179658e-05	1.400495e-05	
12.196116	2.057752e-05	6.219707e-05	9.137478e-05	1.401295e-05	
12.197116	2.093867e-05	6.182170e-05	9.095804e-05	1.402198e-05	
12.198116	2.129958e-05	6.143114e-05	9.054874e-05	1.403209e-05	
12.199117	2.165984e-05	6.102607e-05	9.014925e-05	1.404335e-05	
12.200117	2.201901e-05	6.060719e-05	8.976195e-05	1.405582e-05	
12.201117	2.237667e-05	6.017517e-05	8.938920e-05	1.406955e-05	
12.202117	2.273241e-05	5.973071e-05	8.903337e-05	1.408460e-05	
12.203117	2.308580e-05	5.927448e-05	8.869685e-05	1.410104e-05	
12.204117	2.343641e-05	5.880719e-05	8.838200e-05	1.411893e-05	
12.205118	2.378383e-05	5.832951e-05	8.809119e-05	1.413831e-05	
12.206118	2.412763e-05	5.784213e-05	8.782680e-05	1.415927e-05	
12.207118	2.446739e-05	5.734573e-05	8.759120e-05	1.418184e-05	
12.208118	2.480268e-05	5.684101e-05	8.738676e-05	1.420610e-05	
12.209118	2.513309e-05	5.632865e-05	8.721586e-05	1.423209e-05	
12.210118	2.545819e-05	5.580933e-05	8.708087e-05	1.425989e-05	
12.211118	2.577755e-05	5.528375e-05	8.698415e-05	1.428955e-05	
12.212119	2.609076e-05	5.475259e-05	8.692809e-05	1.432113e-05	
12.213119	2.639739e-05	5.421654e-05	8.691505e-05	1.435469e-05	
12.214119	2.669702e-05	5.367627e-05	8.694741e-05	1.439029e-05	
12.215119	2.698923e-05	5.313249e-05	8.702754e-05	1.442799e-05	
12.216119	2.727359e-05	5.258587e-05	8.715781e-05	1.446784e-05	
12.217119	2.754968e-05	5.203710e-05	8.734060e-05	1.450992e-05	
12.218119	2.781708e-05	5.148687e-05	8.757827e-05	1.455427e-05	
12.219120	2.807537e-05	5.093587e-05	8.787320e-05	1.460096e-05	
12.220120	2.832411e-05	5.038478e-05	8.822776e-05	1.465005e-05	
12.221120	2.856290e-05	4.983429e-05	8.864433e-05	1.470159e-05	
12.222120	2.879131e-05	4.928508e-05	8.912527e-05	1.475565e-05	
12.223120	2.900891e-05	4.873784e-05	8.967297e-05	1.481228e-05	
12.224120	2.921528e-05	4.819326e-05	9.028978e-05	1.487155e-05	
12.225121	2.941003e-05	4.765200e-05	9.097786e-05	1.493350e-05	
12.226121	2.959312e-05	4.711438e-05	9.173603e-05	1.499809e-05	
12.227121	2.976482e-05	4.658045e-05	9.256064e-05	1.506518e-05	
12.228121	2.992538e-05	4.605026e-05	9.344798e-05	1.513463e-05	
12.229121	3.007506e-05	4.552386e-05	9.439437e-05	1.520630e-05	
12.230121	3.021412e-05	4.500131e-05	9.539608e-05	1.528007e-05	
12.231121	3.034281e-05	4.448265e-05	9.644941e-05	1.535579e-05	
12.232122	3.046140e-05	4.396794e-05	9.755067e-05	1.543333e-05	
12.233122	3.057014e-05	4.345722e-05	9.869614e-05	1.551255e-05	
12.234122	3.066929e-05	4.295054e-05	9.988211e-05	1.559333e-05	
12.235122	3.075911e-05	4.244796e-05	1.011049e-04	1.567551e-05	
12.236122	3.083986e-05	4.194953e-05	1.023608e-04	1.575897e-05	
12.237122	3.091180e-05	4.145529e-05	1.036461e-04	1.584357e-05	
12.238122	3.097519e-05	4.096530e-05	1.049570e-04	1.592918e-05	
12.239123	3.103028e-05	4.047961e-05	1.062900e-04	1.601565e-05	
12.240123	3.107733e-05	3.999826e-05	1.076412e-04	1.610286e-05	
12.241123	3.111661e-05	3.952131e-05	1.090071e-04	1.619066e-05	
12.242123	3.114836e-05	3.904882e-05	1.103838e-04	1.627893e-05	
12.243123	3.117286e-05	3.858082e-05	1.117676e-04	1.636752e-05	
12.244123	3.119035e-05	3.811737e-05	1.131549e-04	1.645630e-05	
12.245124	3.120110e-05	3.765852e-05	1.145420e-04	1.654513e-05	
12.246124	3.120537e-05	3.720432e-05	1.159252e-04	1.663388e-05	
12.247124	3.120341e-05	3.675482e-05	1.173006e-04	1.672241e-05	
12.248124	3.119548e-05	3.631007e-05	1.186648e-04	1.681059e-05	
12.249124	3.118184e-05	3.587013e-05	1.200138e-04	1.689828e-05	
12.250124	3.116275e-05	3.543503e-05	1.213441e-04	1.698535e-05	
12.251124	3.113847e-05	3.500484e-05	1.226520e-04	1.707165e-05	
12.252125	3.110926e-05	3.457961e-05	1.239336e-04	1.715706e-05	
12.253125	3.107537e-05	3.415937e-05	1.251854e-04	1.724143e-05	
12.254125	3.103706e-05	3.374419e-05	1.264036e-04	1.732464e-05	
12.255125	3.099460e-05	3.333412e-05	1.275845e-04	1.740654e-05	
12.256125	3.094824e-05	3.292920e-05	1.287244e-04	1.748700e-05	
12.257125	3.089823e-05	3.252948e-05	1.298196e-04	1.756588e-05	
12.258125	3.084485e-05	3.213502e-05	1.308664e-04	1.764306e-05	
12.259126	3.078834e-05	3.174587e-05	1.318611e-04	1.771838e-05	
12.260126	3.072897e-05	3.136207e-05	1.328000e-04	1.779172e-05	
12.261126	3.066699e-05	3.098368e-05	1.336794e-04	1.786294e-05	
12.262126	3.060266e-05	3.061075e-05	1.344956e-04	1.793191e-05	
12.263126	3.053625e-05	3.024332e-05	1.352448e-04	1.799848e-05	
12.264126	3.046800e-05	2.988145e-05	1.359234e-04	1.806253e-05	
12.265127	3.039818e-05	2.952520e-05	1.365276e-04	1.812392e-05	
12.266127	3.032705e-05	2.917460e-05	1.370539e-04	1.818251e-05	
12.267127	3.025487e-05	2.882971e-05	1.374983e-04	1.823816e-05	
12.268127	3.018189e-05	2.849058e-05	1.378574e-04	1.829074e-05	
12.269127	3.010837e-05	2.815726e-05	1.381272e-04	1.834012e-05	
12.270127	3.003457e-05	2.782981e-05	1.383042e-04	1.838615e-05	
12.271127	2.996075e-05	2.750826e-05	1.383847e-04	1.842871e-05	
12.272128	2.988717e-05	2.719268e-05	1.383649e-04	1.846765e-05	
12.273128	2.981409e-05	2.688311e-05	1.382411e-04	1.850285e-05	
12.274128	2.974176e-05	2.657960e-05	1.380096e-04	1.853416e-05	
12.275128	2.967045e-05	2.628220e-05	1.376670e-04	1.856145e-05	
12.276128	2.960045e-05	2.599096e-05	1.372143e-04	1.858470e-05	
12.277128	2.953208e-05	2.570590e-05	1.366554e-04	1.860394e-05	
12.278128	2.946566e-05	2.542707e-05	1.359945e-04	1.861920e-05	
12.279129	2.940151e-05	2.515449e-05	1.352356e-04	1.863053e-05	
12.280129	2.933995e-05	2.488820e-05	1.343829e-04	1.863797e-05	
12.281129	2.928130e-05	2.462823e-05	1.334405e-04	1.864155e-05	
12.282129	2.922588e-05	2.437461e-05	1.324124e-04	1.864130e-05	
12.283129	2.917401e-05	2.412739e-05	1.313028e-04	1.863728e-05	
12.284129	2.912601e-05	2.388659e-05	1.301157e-04	1.862951e-05	
12.285130	2.908219e-05	2.365225e-05	1.288553e-04	1.861804e-05	
12.286130	2.904289e-05	2.342441e-05	1.275257e-04	1.860290e-05	
12.287130	2.900841e-05	2.320308e-05	1.261310e-04	1.858413e-05	
12.288130	2.897909e-05	2.298832e-05	1.246752e-04	1.856178e-05	
12.289130	2.895523e-05	2.278015e-05	1.231625e-04	1.853587e-05	
12.290130	2.893716e-05	2.257860e-05	1.215970e-04	1.850644e-05	
12.291130	2.892520e-05	2.238372e-05	1.199828e-04	1.847354e-05	
12.292131	2.891966e-05	2.219553e-05	1.183240e-04	1.843720e-05	
12.293131	2.892087e-05	2.201407e-05	1.166246e-04	1.839747e-05	
12.294131	2.892915e-05	2.183938e-05	1.148889e-04	1.835437e-05	
12.295131	2.894482e-05	2.167148e-05	1.131208e-04	1.830795e-05	
12.296131	2.896820e-05	2.151041e-05	1.113246e-04	1.825824e-05	
12.297131	2.899960e-05	2.135620e-05	1.095042e-04	1.820529e-05	
12.298131	2.903935e-05	2.120889e-05	1.076639e-04	1.814913e-05	
12.299132	2.908776e-05	2.106851e-05	1.058076e-04	1.808980e-05	
12.300132	2.914516e-05	2.093510e-05	1.039396e-04	1.802734e-05	
12.301132	2.921187e-05	2.080868e-05	1.020638e-04	1.796179e-05	
12.302132	2.928820e-05	2.068930e-05	1.001845e-04	1.789318e-05	
12.303132	2.937448e-05	2.057699e-05	9.830571e-05	1.782155e-05	
12.304132	2.947103e-05	2.047178e-05	9.643152e-05	1.774694e-05	
12.305133	2.957816e-05	2.037370e-05	9.456604e-05	1.766940e-05	
12.306133	2.969620e-05	2.028279e-05	9.271338e-05	1.758895e-05	
12.307133	2.982546e-05	2.019908e-05	9.087765e-05	1.750563e-05	
12.308133	2.996626e-05	2.012261e-05	8.906294e-05	1.741949e-05	
12.309133	3.011894e-05	2.005341e-05	8.727336e-05	1.733057e-05	
12.310133	3.028379e-05	1.999151e-05	8.551301e-05	1.723889e-05	
12.311133	3.046115e-05	1.993695e-05	8.378599e-05	1.714450e-05	
12.312134	3.065134e-05	1.988976e-05	8.209641e-05	1.704744e-05	
12.313134	3.085466e-05	1.984997e-05	8.044836e-05	1.694774e-05	
12.314134	3.107146e-05	1.981763e-05	7.884596e-05	1.684545e-05	
12.315134	3.130203e-05	1.979276e-05	7.729329e-05	1.674060e-05	
12.316134	3.154671e-05	1.977539e-05	7.579448e-05	1.663322e-05	
12.317134	3.180582e-05	1.976557e-05	7.435361e-05	1.652337e-05	
12.318134	3.207966e-05	1.976331e-05	7.297479e-05	1.641107e-05	
12.319135	3.236857e-05	1.976867e-05	7.166212e-05	1.629637e-05	
12.320135	3.267287e-05	1.978167e-05	7.041970e-05	1.617930e-05	
12.321135	3.299286e-05	1.980235e-05	6.925164e-05	1.605989e-05	
12.322135	3.332888e-05	1.983073e-05	6.816205e-05	1.593820e-05	
12.323135	3.368124e-05	1.986686e-05	6.715501e-05	1.581426e-05	
12.324135	3.405026e-05	1.991076e-05	6.623464e-05	1.568810e-05	
12.325135	3.443621e-05	1.996246e-05	6.540474e-05	1.555976e-05	
12.326136	3.483850e-05	2.002164e-05	6.466516e-05	1.542933e-05	
12.327136	3.525597e-05	2.008780e-05	6.401292e-05	1.529690e-05	
12.328136	3.568743e-05	2.016039e-05	6.344496e-05	1.516257e-05	
12.329136	3.613171e-05	2.023891e-05	6.295825e-05	1.502643e-05	
12.330136	3.658762e-05	2.032283e-05	6.254972e-05	1.488860e-05	
12.331136	3.705398e-05	2.041162e-05	6.221633e-05	1.474916e-05	
12.332137	3.752960e-05	2.050475e-05	6.195504e-05	1.460823e-05	
12.333137	3.801332e-05	2.060170e-05	6.176278e-05	1.446589e-05	
12.334137	3.850393e-05	2.070195e-05	6.163651e-05	1.432224e-05	
12.335137	3.900027e-05	2.080498e-05	6.157319e-05	1.417740e-05	
12.336137	3.950114e-05	2.091025e-05	6.156977e-05	1.403145e-05	
12.337137	4.000538e-05	2.101724e-05	6.162318e-05	1.388450e-05	
12.338137	4.051178e-05	2.112543e-05	6.173039e-05	1.373664e-05	
12.339138	4.101918e-05	2.123430e-05	6.188835e-05	1.358799e-05	
12.340138	4.152639e-05	2.134331e-05	6.209401e-05	1.343862e-05	
12.341138	4.203223e-05	2.145194e-05	6.234431e-05	1.328865e-05	
12.342138	4.253552e-05	2.155968e-05	6.263621e-05	1.313818e-05	
12.343138	4.303506e-05	2.166599e-05	6.296667e-05	1.298730e-05	
12.344138	4.352969e-05	2.177034e-05	6.333262e-05	1.283612e-05	
12.345138	4.401822e-05	2.187223e-05	6.373102e-05	1.268473e-05	
12.346139	4.449947e-05	2.197111e-05	6.415883e-05	1.253323e-05	
12.347139	4.497226e-05	2.206647e-05	6.461299e-05	1.238173e-05	
12.348139	4.543539e-05	2.215777e-05	6.509045e-05	1.223031e-05	
12.349139	4.588770e-05	2.224451e-05	6.558817e-05	1.207910e-05	
12.350139	4.632800e-05	2.232614e-05	6.610310e-05	1.192817e-05	
12.351139	4.675510e-05	2.240215e-05	6.663218e-05	1.177764e-05	
12.352140	4.716783e-05	2.247201e-05	6.717237e-05	1.162759e-05	
12.353140	4.756501e-05	2.253520e-05	6.772061e-05	1.147814e-05	
12.354140	4.794544e-05	2.259119e-05	6.827387e-05	1.132938e-05	
12.355140	4.830795e-05	2.263946e-05	6.882909e-05	1.118141e-05	
12.356140	4.865136e-05	2.267948e-05	6.938321e-05	1.103433e-05	
12.357140	4.897448e-05	2.271073e-05	6.993320e-05	1.088824e-05	
12.358140	4.927614e-05	2.273268e-05	7.047600e-05	1.074324e-05	
12.359141	4.955514e-05	2.274480e-05	7.100857e-05	1.059943e-05	
12.360141	4.981031e-05	2.274659e-05	7.152785e-05	1.045690e-05	
12.361141	5.004047e-05	2.273750e-05	7.203079e-05	1.031577e-05	
12.362141	5.024444e-05	2.271701e-05	7.251435e-05	1.017612e-05	
12.363141	5.042102e-05	2.268460e-05	7.297548e-05	1.003806e-05	
12.364141	5.056904e-05	2.263975e-05	7.341112e-05	9.901693e-06	
12.365141	5.068732e-05	2.258193e-05	7.381824e-05	9.767109e-06	
12.366142	5.077468e-05	2.251061e-05	7.419377e-05	9.634412e-06	
12.367142	5.082993e-05	2.242527e-05	7.453467e-05	9.503701e-06	
12.368142	5.085189e-05	2.232539e-05	7.483790e-05	9.375077e-06	
12.369142	5.083938e-05	2.221043e-05	7.510039e-05	9.248638e-06	
12.370142	5.079121e-05	2.207989e-05	7.531911e-05	9.124484e-06	
12.371142	5.070621e-05	2.193322e-05	7.549101e-05	9.002716e-06	
12.372143	5.058319e-05	2.176991e-05	7.561302e-05	8.883432e-06	
12.373143	5.042098e-05	2.158944e-05	7.568212e-05	8.766733e-06	
12.374143	5.021838e-05	2.139127e-05	7.569524e-05	8.652718e-06	
12.375143	4.997432e-05	2.117495e-05	7.564955e-05	8.541481e-06	
12.376143	4.968918e-05	2.094098e-05	7.554502e-05	8.433056e-06	
12.377143	4.936430e-05	2.069051e-05	7.538361e-05	8.327429e-06	
12.378143	4.900109e-05	2.042470e-05	7.516729e-05	8.224588e-06	
12.379144	4.860093e-05	2.014474e-05	7.489805e-05	8.124520e-06	
12.380144	4.816521e-05	1.985177e-05	7.457789e-05	8.027211e-06	
12.381144	4.769532e-05	1.954698e-05	7.420878e-05	7.932648e-06	
12.382144	4.719264e-05	1.923153e-05	7.379271e-05	7.840818e-06	
12.383144	4.665857e-05	1.890658e-05	7.333168e-05	7.751709e-06	
12.384144	4.609450e-05	1.857332e-05	7.282766e-05	7.665306e-06	
12.385144	4.550181e-05	1.823289e-05	7.228265e-05	7.581598e-06	
12.386145	4.488189e-05	1.788648e-05	7.169862e-05	7.500570e-06	
12.387145	4.423613e-05	1.753525e-05	7.107758e-05	7.422210e-06	
12.388145	4.356592e-05	1.718037e-05	7.042149e-05	7.346504e-06	
12.389145	4.287265e-05	1.682301e-05	6.973236e-05	7.273440e-06	
12.390145	4.215771e-05	1.646433e-05	6.901217e-05	7.203004e-06	
12.391145	4.142248e-05	1.610550e-05	6.826289e-05	7.135184e-06	
12.392146	4.066835e-05	1.574769e-05	6.748653e-05	7.069966e-06	
12.393146	3.989672e-05	1.539208e-05	6.668507e-05	7.007336e-06	
12.394146	3.910897e-05	1.503982e-05	6.586049e-05	6.947283e-06	
12.395146	3.830649e-05	1.469209e-05	6.501478e-05	6.889792e-06	
12.396146	3.749067e-05	1.435005e-05	6.414993e-05	6.834851e-06	
12.397146	3.666289e-05	1.401487e-05	6.326792e-05	6.782447e-06	
12.398146	3.582455e-05	1.368772e-05	6.237075e-05	6.732566e-06	
12.399147	3.497704e-05	1.336977e-05	6.146039e-05	6.685196e-06	
12.400147	3.412174e-05	1.306219e-05	6.053883e-05	6.640323e-06	
12.401147	3.326004e-05	1.276614e-05	5.960807e-05	6.597934e-06	
12.402147	3.239334e-05	1.248279e-05	5.867009e-05	6.558016e-06	
12.403147	3.152301e-05	1.221331e-05	5.772687e-05	6.520556e-06	
12.404147	3.065045e-05	1.195887e-05	5.678040e-05	6.485541e-06	
12.405147	2.977705e-05	1.172064e-05	5.583267e-05	6.452958e-06	
12.406148	2.890419e-05	1.149978e-05	5.488566e-05	6.422794e-06	
12.407148	2.803327e-05	1.129747e-05	5.394136e-05	6.395035e-06	
12.408148	2.716567e-05	1.111486e-05	5.300177e-05	6.369668e-06	
12.409148	2.630278e-05	1.095314e-05	5.206885e-05	6.346681e-06	
12.410148	2.544600e-05	1.081346e-05	5.114461e-05	6.326060e-06	
12.411148	2.459670e-05	1.069699e-05	5.023103e-05	6.307792e-06	
12.412149	2.375628e-05	1.060491e-05	4.933009e-05	6.291864e-06	
12.413149	2.292613e-05	1.053839e-05	4.844379e-05	6.278263e-06	
12.414149	2.210763e-05	1.049858e-05	4.757410e-05	6.266976e-06	
12.415149	2.130217e-05	1.048666e-05	4.672302e-05	6.257990e-06	
12.416149	2.051115e-05	1.050379e-05	4.589253e-05	6.251291e-06	
12.417149	1.973595e-05	1.055115e-05	4.508462e-05	6.246867e-06	
12.418149	1.897796e-05	1.062990e-05	4.430127e-05	6.244704e-06	
12.419150	1.823857e-05	1.074121e-05	4.354447e-05	6.244789e-06	
12.420150	1.751917e-05	1.088625e-05	4.281622e-05	6.247110e-06	
12.421150	1.682114e-05	1.106618e-05	4.211849e-05	6.251652e-06	
12.422150	1.614587e-05	1.128218e-05	4.145327e-05	6.258404e-06	
12.423150	1.549476e-05	1.153541e-05	4.082255e-05	6.267351e-06	
12.424150	1.486919e-05	1.182704e-05	4.022832e-05	6.278481e-06	
12.425150	1.427047e-05	1.215812e-05	3.967243e-05	6.291790e-06	
12.426151	1.369876e-05	1.252806e-05	3.915518e-05	6.307392e-06	
12.427151	1.315345e-05	1.293517e-05	3.867576e-05	6.325480e-06	
12.428151	1.263394e-05	1.337776e-05	3.823335e-05	6.346250e-06	
12.429151	1.213959e-05	1.385410e-05	3.782713e-05	6.369899e-06	
12.430151	1.166979e-05	1.436249e-05	3.745627e-05	6.396622e-06	
12.431151	1.122392e-05	1.490121e-05	3.711996e-05	6.426616e-06	
12.432152	1.080136e-05	1.546856e-05	3.681736e-05	6.460075e-06	
12.433152	1.040148e-05	1.606282e-05	3.654767e-05	6.497197e-06	
12.434152	1.002366e-05	1.668228e-05	3.631004e-05	6.538177e-06	
12.435152	9.667294e-06	1.732523e-05	3.610367e-05	6.583210e-06	
12.436152	9.331750e-06	1.798997e-05	3.592772e-05	6.632493e-06	
12.437152	9.016411e-06	1.867478e-05	3.578138e-05	6.686222e-06	
12.438152	8.720655e-06	1.937794e-05	3.566383e-05	6.744593e-06	
12.439153	8.443862e-06	2.009776e-05	3.557423e-05	6.807801e-06	
12.440153	8.185411e-06	2.083251e-05	3.551178e-05	6.876042e-06	
12.441153	7.944683e-06	2.158049e-05	3.547564e-05	6.949512e-06	
12.442153	7.721057e-06	2.233999e-05	3.546499e-05	7.028408e-06	
12.443153	7.513912e-06	2.310929e-05	3.547901e-05	7.112925e-06	
12.444153	7.322627e-06	2.388669e-05	3.551687e-05	7.203259e-06	
12.445153	7.146583e-06	2.467047e-05	3.557777e-05	7.299606e-06	
12.446154	6.985158e-06	2.545893e-05	3.566086e-05	7.402161e-06	
12.447154	6.837732e-06	2.625035e-05	3.576533e-05	7.511122e-06	
12.448154	6.703686e-06	2.704303e-05	3.589036e-05	7.626683e-06	
12.449154	6.582397e-06	2.783524e-05	3.603513e-05	7.749040e-06	
12.450154	6.473246e-06	2.862529e-05	3.619880e-05	7.878390e-06	
12.451154	6.375613e-06	2.941145e-05	3.638056e-05	8.014928e-06	
12.452155	6.288876e-06	3.019203e-05	3.657959e-05	8.158850e-06	
12.453155	6.212415e-06	3.096530e-05	3.679506e-05	8.310353e-06	
12.454155	6.145610e-06	3.172957e-05	3.702616e-05	8.469631e-06	
12.455155	6.087841e-06	3.248311e-05	3.727205e-05	8.636882e-06	
12.456155	6.038486e-06	3.322421e-05	3.753191e-05	8.812300e-06	
12.457155	5.996926e-06	3.395117e-05	3.780493e-05	8.996082e-06	
12.458155	5.962539e-06	3.466228e-05	3.809028e-05	9.188424e-06	
12.459156	5.934706e-06	3.535582e-05	3.838713e-05	9.389521e-06	
12.460156	5.912805e-06	3.603009e-05	3.869467e-05	9.599570e-06	
12.461156	5.896217e-06	3.668337e-05	3.901207e-05	9.818766e-06	
12.462156	5.884320e-06	3.731395e-05	3.933851e-05	1.004731e-05	
12.463156	5.876495e-06	3.792012e-05	3.967316e-05	1.028538e-05	
12.464156	5.872121e-06	3.850017e-05	4.001521e-05	1.053320e-05	
12.465156	5.870577e-06	3.905239e-05	4.036383e-05	1.079094e-05	
12.466157	5.871243e-06	3.957507e-05	4.071820e-05	1.105881e-05	
12.467157	5.873499e-06	4.006650e-05	4.107749e-05	1.133701e-05	
12.468157	5.876723e-06	4.052497e-05	4.144089e-05	1.162572e-05	
12.469157	5.880295e-06	4.094877e-05	4.180756e-05	1.192515e-05	
12.470157	5.883596e-06	4.133618e-05	4.217670e-05	1.223549e-05	
12.471157	5.886004e-06	4.168549e-05	4.254746e-05	1.255693e-05	
12.472158	5.886899e-06	4.199500e-05	4.291905e-05	1.288968e-05	
12.473158	5.885660e-06	4.226300e-05	4.329062e-05	1.323392e-05	
12.474158	5.881667e-06	4.248777e-05	4.366135e-05	1.358986e-05	
12.475158	5.874335e-06	4.266773e-05	4.403046e-05	1.395765e-05	
12.476158	5.863509e-06	4.280299e-05	4.439745e-05	1.433693e-05	
12.477158	5.849328e-06	4.289473e-05	4.476205e-05	1.472699e-05	
12.478158	5.831935e-06	4.294420e-05	4.512399e-05	1.512714e-05	
12.479159	5.811474e-06	4.295263e-05	4.548300e-05	1.553664e-05	
12.480159	5.788089e-06	4.292126e-05	4.583881e-05	1.595481e-05	
12.481159	5.761922e-06	4.285130e-05	4.619115e-05	1.638092e-05	
12.482159	5.733118e-06	4.274400e-05	4.653975e-05	1.681426e-05	
12.483159	5.701820e-06	4.260059e-05	4.688434e-05	1.725413e-05	
12.484159	5.668172e-06	4.242230e-05	4.722465e-05	1.769981e-05	
12.485159	5.632317e-06	4.221035e-05	4.756041e-05	1.815059e-05	
12.486160	5.594399e-06	4.196599e-05	4.789135e-05	1.860577e-05	
12.487160	5.554561e-06	4.169045e-05	4.821720e-05	1.906464e-05	
12.488160	5.512947e-06	4.138495e-05	4.853769e-05	1.952647e-05	
12.489160	5.469700e-06	4.105073e-05	4.885254e-05	1.999057e-05	
12.490160	5.424964e-06	4.068902e-05	4.916150e-05	2.045621e-05	
12.491160	5.378883e-06	4.030105e-05	4.946428e-05	2.092270e-05	
12.492161	5.331600e-06	3.988806e-05	4.976062e-05	2.138932e-05	
12.493161	5.283258e-06	3.945127e-05	5.005026e-05	2.185536e-05	
12.494161	5.234002e-06	3.899193e-05	5.033290e-05	2.232011e-05	
12.495161	5.183974e-06	3.851125e-05	5.060830e-05	2.278286e-05	
12.496161	5.133319e-06	3.801048e-05	5.087618e-05	2.324290e-05	
12.497161	5.082179e-06	3.749084e-05	5.113626e-05	2.369951e-05	
12.498161	5.030699e-06	3.695356e-05	5.138829e-05	2.415200e-05	
12.499162	4.979022e-06	3.639989e-05	5.163198e-05	2.459964e-05	
12.500162	4.927292e-06	3.583104e-05	5.186707e-05	2.504173e-05	
12.501162	4.875651e-06	3.524826e-05	5.209328e-05	2.547756e-05	
12.502162	4.824244e-06	3.465277e-05	5.231036e-05	2.590642e-05	
12.503162	4.773215e-06	3.404580e-05	5.251802e-05	2.632759e-05	
12.504162	4.722706e-06	3.342860e-05	5.271600e-05	2.674036e-05	
12.505162	4.672861e-06	3.280238e-05	5.290403e-05	2.714403e-05	
12.506163	4.623824e-06	3.216839e-05	5.308183e-05	2.753789e-05	
12.507163	4.575739e-06	3.152785e-05	5.324914e-05	2.792122e-05	
12.508163	4.528748e-06	3.088200e-05	5.340569e-05	2.829332e-05	
12.509163	4.482996e-06	3.023206e-05	5.355121e-05	2.865347e-05	
12.510163	4.438626e-06	2.957928e-05	5.368542e-05	2.900096e-05	
12.511163	4.395782e-06	2.892487e-05	5.380806e-05	2.933509e-05	
12.512163	4.354607e-06	2.827008e-05	5.391886e-05	2.965514e-05	
12.513164	4.315245e-06	2.761614e-05	5.401754e-05	2.996040e-05	
12.514164	4.277838e-06	2.696427e-05	5.410384e-05	3.025016e-05	
12.515164	4.242532e-06	2.631571e-05	5.417749e-05	3.052371e-05	
12.516164	4.209469e-06	2.567169e-05	5.423821e-05	3.078035e-05	
12.517164	4.178793e-06	2.503345e-05	5.428574e-05	3.101935e-05	
12.518164	4.150648e-06	2.440221e-05	5.431981e-05	3.124002e-05	
12.519165	4.125177e-06	2.377921e-05	5.434014e-05	3.144164e-05	
12.520165	4.102523e-06	2.316568e-05	5.434647e-05	3.162349e-05	
12.521165	4.082830e-06	2.256286e-05	5.433852e-05	3.178487e-05	
12.522165	4.066242e-06	2.197196e-05	5.431603e-05	3.192508e-05	
12.523165	4.052903e-06	2.139423e-05	5.427872e-05	3.204339e-05	
12.524165	4.042955e-06	2.083090e-05	5.422633e-05	3.213909e-05	
12.525165	4.036528e-06	2.028312e-05	5.415862e-05	3.221156e-05	
12.526166	4.033567e-06	1.975123e-05	5.407573e-05	3.226102e-05	
12.527166	4.033897e-06	1.923500e-05	5.397807e-05	3.228828e-05	
12.528166	4.037344e-06	1.873419e-05	5.386604e-05	3.229416e-05	
12.529166	4.043728e-06	1.824857e-05	5.374005e-05	3.227948e-05	
12.530166	4.052875e-06	1.777789e-05	5.360051e-05	3.224506e-05	
12.531166	4.064608e-06	1.732192e-05	5.344782e-05	3.219171e-05	
12.532166	4.078749e-06	1.688042e-05	5.328239e-05	3.212026e-05	
12.533167	4.095123e-06	1.645315e-05	5.310462e-05	3.203152e-05	
12.534167	4.113552e-06	1.603988e-05	5.291493e-05	3.192632e-05	
12.535167	4.133860e-06	1.564036e-05	5.271371e-05	3.180547e-05	
12.536167	4.155870e-06	1.525437e-05	5.250138e-05	3.166979e-05	
12.537167	4.179407e-06	1.488166e-05	5.227833e-05	3.152010e-05	
12.538167	4.204292e-06	1.452199e-05	5.204499e-05	3.135723e-05	
12.539168	4.230350e-06	1.417514e-05	5.180175e-05	3.118198e-05	
12.540168	4.257403e-06	1.384085e-05	5.154902e-05	3.099517e-05	
12.541168	4.285276e-06	1.351890e-05	5.128721e-05	3.079764e-05	
12.542168	4.313792e-06	1.320905e-05	5.101672e-05	3.059019e-05	
12.543168	4.342773e-06	1.291105e-05	5.073796e-05	3.037364e-05	
12.544168	4.372044e-06	1.262467e-05	5.045134e-05	3.014882e-05	
12.545168	4.401428e-06	1.234968e-05	5.015726e-05	2.991654e-05	
12.546169	4.430747e-06	1.208583e-05	4.985613e-05	2.967763e-05	
12.547169	4.459827e-06	1.183289e-05	4.954836e-05	2.943289e-05	
12.548169	4.488489e-06	1.159063e-05	4.923435e-05	2.918315e-05	
12.549169	4.516557e-06	1.135879e-05	4.891451e-05	2.892923e-05	
12.550169	4.543855e-06	1.113715e-05	4.858924e-05	2.867195e-05	
12.551169	4.570206e-06	1.092547e-05	4.825896e-05	2.841213e-05	
12.552169	4.595434e-06	1.072351e-05	4.792406e-05	2.815058e-05	
12.553170	4.619361e-06	1.053104e-05	4.758496e-05	2.788812e-05	
12.554170	4.641811e-06	1.034781e-05	4.724206e-05	2.762558e-05	
12.555170	4.662608e-06	1.017359e-05	4.689576e-05	2.736377e-05	
12.556170	4.681575e-06	1.000814e-05	4.654648e-05	2.710351e-05	
12.557170	4.698535e-06	9.851225e-06	4.619463e-05	2.684563e-05	
12.558170	4.713312e-06	9.702605e-06	4.584060e-05	2.659093e-05	
12.559171	4.725729e-06	9.562044e-06	4.548480e-05	2.634024e-05	
12.560171	4.735609e-06	9.429304e-06	4.512764e-05	2.609438e-05	
12.561171	4.742776e-06	9.304148e-06	4.476953e-05	2.585416e-05	
12.562171	4.747054e-06	9.186337e-06	4.441087e-05	2.562041e-05	
12.563171	4.748264e-06	9.075636e-06	4.405207e-05	2.539395e-05	
12.564171	4.746232e-06	8.971806e-06	4.369354e-05	2.517559e-05	
12.565171	4.740780e-06	8.874609e-06	4.333568e-05	2.496615e-05	
12.566172	4.731732e-06	8.783809e-06	4.297890e-05	2.476645e-05	
12.567172	4.718911e-06	8.699167e-06	4.262361e-05	2.457731e-05	
12.568172	4.702140e-06	8.620447e-06	4.227020e-05	2.439955e-05	
12.569172	4.681243e-06	8.547410e-06	4.191910e-05	2.423399e-05	
12.570172	4.656043e-06	8.479820e-06	4.157070e-05	2.408145e-05	
12.571172	4.626364e-06	8.417438e-06	4.122541e-05	2.394274e-05	
12.572172	4.592029e-06	8.360028e-06	4.088364e-05	2.381869e-05	
12.573173	4.552861e-06	8.307351e-06	4.054579e-05	2.371011e-05	
12.574173	4.508684e-06	8.259171e-06	4.021228e-05	2.361783e-05	
12.575173	4.459351e-06	8.215254e-06	3.988347e-05	2.354259e-05	
12.576173	4.405071e-06	8.175413e-06	3.955943e-05	2.348436e-05	
12.577173	4.346281e-06	8.139490e-06	3.924001e-05	2.344260e-05	
12.578173	4.283423e-06	8.107330e-06	3.892504e-05	2.341675e-05	
12.579174	4.216938e-06	8.078776e-06	3.861438e-05	2.340627e-05	
12.580174	4.147270e-06	8.053673e-06	3.830787e-05	2.341059e-05	
12.581174	4.074859e-06	8.031863e-06	3.800535e-05	2.342916e-05	
12.582174	4.000147e-06	8.013190e-06	3.770668e-05	2.346143e-05	
12.583174	3.923577e-06	7.997498e-06	3.741168e-05	2.350686e-05	
12.584174	3.845589e-06	7.984630e-06	3.712021e-05	2.356487e-05	
12.585174	3.766627e-06	7.974431e-06	3.683212e-05	2.363493e-05	
12.586175	3.687130e-06	7.966744e-06	3.654724e-05	2.371648e-05	
12.587175	3.607543e-06	7.961412e-06	3.626542e-05	2.380896e-05	
12.588175	3.528305e-06	7.958280e-06	3.598651e-05	2.391183e-05	
12.589175	3.449860e-06	7.957190e-06	3.571035e-05	2.402452e-05	
12.590175	3.372648e-06	7.957987e-06	3.543679e-05	2.414649e-05	
12.591175	3.297113e-06	7.960514e-06	3.516567e-05	2.427718e-05	
12.592175	3.223694e-06	7.964615e-06	3.489683e-05	2.441605e-05	
12.593176	3.152835e-06	7.970133e-06	3.463013e-05	2.456253e-05	
12.594176	3.084977e-06	7.976912e-06	3.436540e-05	2.471607e-05	
12.595176	3.020562e-06	7.984797e-06	3.410248e-05	2.487613e-05	
12.596176	2.960032e-06	7.993629e-06	3.384123e-05	2.504214e-05	
12.597176	2.903829e-06	8.003254e-06	3.358149e-05	2.521356e-05	
12.598176	2.852393e-06	8.013515e-06	3.332311e-05	2.538983e-05	
12.599177	2.806168e-06	8.024255e-06	3.306592e-05	2.557040e-05	
12.600177	2.765595e-06	8.035318e-06	3.280977e-05	2.575471e-05	
12.601177	2.731116e-06	8.046548e-06	3.255452e-05	2.594221e-05	
12.602177	2.703173e-06	8.057789e-06	3.229999e-05	2.613236e-05	
12.603177	2.682207e-06	8.068883e-06	3.204604e-05	2.632459e-05	
12.604177	2.668660e-06	8.079676e-06	3.179251e-05	2.651835e-05	
12.605177	2.662974e-06	8.090009e-06	3.153925e-05	2.671310e-05	
12.606178	2.665592e-06	8.099728e-06	3.128610e-05	2.690827e-05	
12.607178	2.676954e-06	8.108676e-06	3.103290e-05	2.710331e-05	
12.608178	2.697502e-06	8.116696e-06	3.077951e-05	2.729768e-05	
12.609178	2.727679e-06	8.123632e-06	3.052576e-05	2.749081e-05	
12.610178	2.767926e-06	8.129327e-06	3.027150e-05	2.768216e-05	
12.611178	2.818685e-06	8.133626e-06	3.001657e-05	2.787116e-05	
12.612178	2.880398e-06	8.136372e-06	2.976082e-05	2.805728e-05	
12.613179	2.953507e-06	8.137409e-06	2.950410e-05	2.823995e-05	
12.614179	3.038453e-06	8.136580e-06	2.924624e-05	2.841863e-05	
12.615179	3.135678e-06	8.133729e-06	2.898710e-05	2.859275e-05	
12.616179	3.245624e-06	8.128699e-06	2.872651e-05	2.876177e-05	
12.617179	3.368733e-06	8.121335e-06	2.846433e-05	2.892513e-05	
12.618179	3.505447e-06	8.111480e-06	2.820040e-05	2.908228e-05	
12.619180	3.656208e-06	8.098978e-06	2.793455e-05	2.923267e-05	
12.620180	3.821456e-06	8.083672e-06	2.766664e-05	2.937575e-05	
12.621180	4.001635e-06	8.065406e-06	2.739652e-05	2.951095e-05	
12.622180	4.197186e-06	8.044023e-06	2.712402e-05	2.963773e-05	
12.623180	4.408551e-06	8.019368e-06	2.684899e-05	2.975553e-05	
12.624180	4.636171e-06	7.991283e-06	2.657127e-05	2.986381e-05	
12.625180	4.880425e-06	7.959625e-06	2.629074e-05	2.996204e-05	
12.626181	5.140968e-06	7.924387e-06	2.600747e-05	3.005015e-05	
12.627181	5.416994e-06	7.885647e-06	2.572171e-05	3.012835e-05	
12.628181	5.707691e-06	7.843487e-06	2.543370e-05	3.019683e-05	
12.629181	6.012247e-06	7.797987e-06	2.514368e-05	3.025581e-05	
12.630181	6.329847e-06	7.749229e-06	2.485187e-05	3.030550e-05	
12.631181	6.659681e-06	7.697294e-06	2.455853e-05	3.034609e-05	
12.632181	7.000935e-06	7.642263e-06	2.426389e-05	3.037779e-05	
12.633182	7.352796e-06	7.584216e-06	2.396819e-05	3.040082e-05	
12.634182	7.714452e-06	7.523235e-06	2.367166e-05	3.041538e-05	
12.635182	8.085090e-06	7.459401e-06	2.337455e-05	3.042167e-05	
12.636182	8.463897e-06	7.392794e-06	2.307710e-05	3.041990e-05	
12.637182	8.850062e-06	7.323495e-06	2.277953e-05	3.041029e-05	
12.638182	9.242770e-06	7.251587e-06	2.248210e-05	3.039303e-05	
12.639183	9.641210e-06	7.177149e-06	2.218503e-05	3.036833e-05	
12.640183	1.004457e-05	7.100262e-06	2.188858e-05	3.033639e-05	
12.641183	1.045203e-05	7.021008e-06	2.159297e-05	3.029744e-05	
12.642183	1.086279e-05	6.939468e-06	2.129844e-05	3.025166e-05	
12.643183	1.127603e-05	6.855722e-06	2.100524e-05	3.019928e-05	
12.644183	1.169094e-05	6.769851e-06	2.071360e-05	3.014049e-05	
12.645183	1.210670e-05	6.681938e-06	2.042376e-05	3.007550e-05	
12.646184	1.252251e-05	6.592061e-06	2.013596e-05	3.000451e-05	
12.647184	1.293754e-05	6.500303e-06	1.985044e-05	2.992775e-05	
12.648184	1.335100e-05	6.406745e-06	1.956743e-05	2.984540e-05	
12.649184	1.376205e-05	6.311467e-06	1.928717e-05	2.975769e-05	
12.650184	1.416990e-05	6.214550e-06	1.900991e-05	2.966480e-05	
12.651184	1.457373e-05	6.116076e-06	1.873588e-05	2.956696e-05	
12.652184	1.497273e-05	6.016126e-06	1.846532e-05	2.946437e-05	
12.653185	1.536608e-05	5.914779e-06	1.819847e-05	2.935723e-05	
12.654185	1.575297e-05	5.812118e-06	1.793556e-05	2.924576e-05	
12.655185	1.613259e-05	5.708224e-06	1.767684e-05	2.913015e-05	
12.656185	1.650413e-05	5.603177e-06	1.742254e-05	2.901061e-05	
12.657185	1.686677e-05	5.497058e-06	1.717291e-05	2.888736e-05	
12.658185	1.721970e-05	5.389949e-06	1.692817e-05	2.876060e-05	
12.659186	1.756211e-05	5.281929e-06	1.668858e-05	2.863053e-05	
12.660186	1.789318e-05	5.173082e-06	1.645436e-05	2.849736e-05	
12.661186	1.821211e-05	5.063486e-06	1.622576e-05	2.836129e-05	
12.662186	1.851808e-05	4.953224e-06	1.600301e-05	2.822255e-05	
12.663186	1.881027e-05	4.842376e-06	1.578635e-05	2.808132e-05	
12.664186	1.908788e-05	4.731023e-06	1.557603e-05	2.793782e-05	
12.665186	1.935010e-05	4.619247e-06	1.537227e-05	2.779226e-05	
12.666187	1.959610e-05	4.507128e-06	1.517533e-05	2.764483e-05	
12.667187	1.982507e-05	4.394747e-06	1.498543e-05	2.749576e-05	
12.668187	2.003622e-05	4.282185e-06	1.480281e-05	2.734523e-05	
12.669187	2.022871e-05	4.169524e-06	1.462772e-05	2.719347e-05	
12.670187	2.040174e-05	4.056843e-06	1.446040e-05	2.704068e-05	
12.671187	2.055450e-05	3.944225e-06	1.430107e-05	2.688706e-05	
12.672187	2.068617e-05	3.831750e-06	1.414998e-05	2.673282e-05	
12.673188	2.079595e-05	3.719499e-06	1.400737e-05	2.657817e-05	
12.674188	2.088301e-05	3.607553e-06	1.387347e-05	2.642331e-05	
12.675188	2.094662e-05	3.496011e-06	1.374851e-05	2.626844e-05	
12.676188	2.098694e-05	3.385165e-06	1.363237e-05	2.611362e-05	
12.677188	2.100466e-05	3.275429e-06	1.352479e-05	2.595885e-05	
12.678188	2.100049e-05	3.167218e-06	1.342546e-05	2.580410e-05	
12.679189	2.097514e-05	3.060947e-06	1.333412e-05	2.564936e-05	
12.680189	2.092930e-05	2.957031e-06	1.325046e-05	2.549461e-05	
12.681189	2.086369e-05	2.855887e-06	1.317420e-05	2.533984e-05	
12.682189	2.077902e-05	2.757928e-06	1.310506e-05	2.518503e-05	
12.683189	2.067598e-05	2.663571e-06	1.304274e-05	2.503016e-05	
12.684189	2.055529e-05	2.573232e-06	1.298697e-05	2.487523e-05	
12.685189	2.041765e-05	2.487324e-06	1.293745e-05	2.472021e-05	
12.686190	2.026377e-05	2.406263e-06	1.289389e-05	2.456509e-05	
12.687190	2.009436e-05	2.330466e-06	1.285602e-05	2.440985e-05	
12.688190	1.991012e-05	2.260347e-06	1.282354e-05	2.425448e-05	
12.689190	1.971176e-05	2.196321e-06	1.279616e-05	2.409896e-05	
12.690190	1.949998e-05	2.138804e-06	1.277360e-05	2.394328e-05	
12.691190	1.927549e-05	2.088211e-06	1.275558e-05	2.378741e-05	
12.692190	1.903900e-05	2.044957e-06	1.274180e-05	2.363135e-05	
12.693191	1.879122e-05	2.009458e-06	1.273198e-05	2.347508e-05	
12.694191	1.853284e-05	1.982130e-06	1.272584e-05	2.331858e-05	
12.695191	1.826458e-05	1.963386e-06	1.272307e-05	2.316184e-05	
12.696191	1.798714e-05	1.953643e-06	1.272341e-05	2.300484e-05	
12.697191	1.770124e-05	1.953317e-06	1.272655e-05	2.284756e-05	
12.698191	1.740756e-05	1.962821e-06	1.273222e-05	2.269000e-05	
12.699191	1.710683e-05	1.982572e-06	1.274013e-05	2.253212e-05	
12.700192	1.679975e-05	2.012985e-06	1.274999e-05	2.237393e-05	
12.701192	1.648702e-05	2.054476e-06	1.276150e-05	2.221540e-05	
12.702192	1.616936e-05	2.107459e-06	1.277440e-05	2.205651e-05	
12.703192	1.584746e-05	2.172350e-06	1.278839e-05	2.189726e-05	
12.704192	1.552204e-05	2.249564e-06	1.280317e-05	2.173762e-05	
12.705192	1.519379e-05	2.339517e-06	1.281848e-05	2.157758e-05	
12.706193	1.486343e-05	2.442623e-06	1.283401e-05	2.141713e-05	
12.707193	1.453167e-05	2.559299e-06	1.284948e-05	2.125624e-05	
12.708193	1.419921e-05	2.689959e-06	1.286461e-05	2.109491e-05	
12.709193	1.386675e-05	2.835019e-06	1.287911e-05	2.093311e-05	
12.710193	1.353500e-05	2.994894e-06	1.289268e-05	2.077083e-05	
12.711193	1.320467e-05	3.170000e-06	1.290505e-05	2.060806e-05	
12.712193	1.287647e-05	3.360751e-06	1.291593e-05	2.044477e-05	
12.713194	1.255110e-05	3.567564e-06	1.292503e-05	2.028096e-05	
12.714194	1.222927e-05	3.790853e-06	1.293206e-05	2.011661e-05	
12.715194	1.191168e-05	4.031033e-06	1.293674e-05	1.995170e-05	
12.716194	1.159904e-05	4.288521e-06	1.293878e-05	1.978622e-05	
12.717194	1.129206e-05	4.563731e-06	1.293789e-05	1.962014e-05	
12.718194	1.099144e-05	4.857079e-06	1.293379e-05	1.945346e-05	
12.719194	1.069789e-05	5.168980e-06	1.292618e-05	1.928616e-05	
12.720195	1.041212e-05	5.499849e-06	1.291479e-05	1.911823e-05	
12.721195	1.013483e-05	5.850101e-06	1.289932e-05	1.894964e-05	
12.722195	9.866724e-06	6.220153e-06	1.287949e-05	1.878038e-05	
12.723195	9.608518e-06	6.610419e-06	1.285501e-05	1.861044e-05	
12.724195	9.360914e-06	7.021314e-06	1.282559e-05	1.843980e-05	
12.725195	9.124565e-06	7.453188e-06	1.279099e-05	1.826845e-05	
12.726196	8.899562e-06	7.905674e-06	1.275129e-05	1.809642e-05	
12.727196	8.685650e-06	8.377968e-06	1.270682e-05	1.792378e-05	
12.728196	8.482567e-06	8.869259e-06	1.265789e-05	1.775060e-05	
12.729196	8.290055e-06	9.378737e-06	1.260482e-05	1.757693e-05	
12.730196	8.107853e-06	9.905591e-06	1.254794e-05	1.740284e-05	
12.731196	7.935701e-06	1.044901e-05	1.248755e-05	1.722840e-05	
12.732196	7.773339e-06	1.100819e-05	1.242398e-05	1.705367e-05	
12.733197	7.620507e-06	1.158231e-05	1.235755e-05	1.687871e-05	
12.734197	7.476945e-06	1.217057e-05	1.228857e-05	1.670359e-05	
12.735197	7.342393e-06	1.277215e-05	1.221736e-05	1.652838e-05	
12.736197	7.216591e-06	1.338625e-05	1.214425e-05	1.635313e-05	
12.737197	7.099278e-06	1.401205e-05	1.206955e-05	1.617792e-05	
12.738197	6.990195e-06	1.464875e-05	1.199357e-05	1.600280e-05	
12.739197	6.889081e-06	1.529552e-05	1.191664e-05	1.582784e-05	
12.740198	6.795677e-06	1.595158e-05	1.183908e-05	1.565311e-05	
12.741198	6.709723e-06	1.661609e-05	1.176120e-05	1.547866e-05	
12.742198	6.630958e-06	1.728826e-05	1.168332e-05	1.530458e-05	
12.743198	6.559122e-06	1.796727e-05	1.160576e-05	1.513091e-05	
12.744198	6.493955e-06	1.865231e-05	1.152885e-05	1.495772e-05	
12.745198	6.435198e-06	1.934257e-05	1.145289e-05	1.478508e-05	
12.746199	6.382590e-06	2.003724e-05	1.137821e-05	1.461305e-05	
12.747199	6.335871e-06	2.073551e-05	1.130512e-05	1.444170e-05	
12.748199	6.294781e-06	2.143658e-05	1.123395e-05	1.427108e-05	
12.749199	6.259060e-06	2.213962e-05	1.116501e-05	1.410127e-05	
12.750199	6.228448e-06	2.284383e-05	1.109862e-05	1.393233e-05	
12.751199	6.202684e-06	2.354841e-05	1.103510e-05	1.376433e-05	
12.752199	6.181510e-06	2.425253e-05	1.097477e-05	1.359732e-05	
12.753200	6.164664e-06	2.495539e-05	1.091794e-05	1.343138e-05	
12.754200	6.151887e-06	2.565617e-05	1.086494e-05	1.326656e-05	
12.755200	6.142918e-06	2.635408e-05	1.081608e-05	1.310293e-05	
12.756200	6.137498e-06	2.704829e-05	1.077168e-05	1.294056e-05	
12.757200	6.135367e-06	2.773800e-05	1.073206e-05	1.277950e-05	
12.758200	6.136264e-06	2.842240e-05	1.069755e-05	1.261983e-05	
12.759200	6.139929e-06	2.910067e-05	1.066845e-05	1.246161e-05	
12.760201	6.146102e-06	2.977201e-05	1.064508e-05	1.230490e-05	
12.761201	6.154524e-06	3.043561e-05	1.062777e-05	1.214977e-05	
12.762201	6.164934e-06	3.109065e-05	1.061683e-05	1.199628e-05	
12.763201	6.177072e-06	3.173632e-05	1.061259e-05	1.184450e-05	
12.764201	6.190678e-06	3.237182e-05	1.061535e-05	1.169449e-05	
12.765201	6.205492e-06	3.299634e-05	1.062544e-05	1.154631e-05	
12.766202	6.221253e-06	3.360905e-05	1.064318e-05	1.140003e-05	
12.767202	6.237703e-06	3.420917e-05	1.066889e-05	1.125572e-05	
12.768202	6.254581e-06	3.479586e-05	1.070287e-05	1.111343e-05	
12.769202	6.271626e-06	3.536833e-05	1.074547e-05	1.097323e-05	
12.770202	6.288579e-06	3.592576e-05	1.079698e-05	1.083519e-05	
12.771202	6.305179e-06	3.646734e-05	1.085773e-05	1.069938e-05	
12.772202	6.321167e-06	3.699226e-05	1.092804e-05	1.056584e-05	
12.773203	6.336283e-06	3.749972e-05	1.100822e-05	1.043466e-05	
12.774203	6.350265e-06	3.798890e-05	1.109861e-05	1.030589e-05	
12.775203	6.362872e-06	3.845907e-05	1.119947e-05	1.017960e-05	
12.776203	6.374038e-06	3.891041e-05	1.131086e-05	1.005580e-05	
12.777203	6.383801e-06	3.934362e-05	1.143261e-05	9.934475e-06	
12.778203	6.392203e-06	3.975941e-05	1.156461e-05	9.815629e-06	
12.779203	6.399285e-06	4.015851e-05	1.170670e-05	9.699247e-06	
12.780204	6.405090e-06	4.054163e-05	1.185875e-05	9.585320e-06	
12.781204	6.409657e-06	4.090947e-05	1.202062e-05	9.473839e-06	
12.782204	6.413029e-06	4.126275e-05	1.219218e-05	9.364794e-06	
12.783204	6.415247e-06	4.160219e-05	1.237328e-05	9.258177e-06	
12.784204	6.416352e-06	4.192850e-05	1.256378e-05	9.153979e-06	
12.785204	6.416384e-06	4.224239e-05	1.276355e-05	9.052190e-06	
12.786205	6.415387e-06	4.254458e-05	1.297244e-05	8.952801e-06	
12.787205	6.413400e-06	4.283578e-05	1.319033e-05	8.855803e-06	
12.788205	6.410465e-06	4.311670e-05	1.341706e-05	8.761187e-06	
12.789205	6.406624e-06	4.338807e-05	1.365250e-05	8.668943e-06	
12.790205	6.401918e-06	4.365059e-05	1.389652e-05	8.579063e-06	
12.791205	6.396387e-06	4.390497e-05	1.414897e-05	8.491537e-06	
12.792205	6.390074e-06	4.415193e-05	1.440971e-05	8.406355e-06	
12.793206	6.383020e-06	4.439219e-05	1.467861e-05	8.323510e-06	
12.794206	6.375265e-06	4.462645e-05	1.495553e-05	8.242992e-06	
12.795206	6.366851e-06	4.485544e-05	1.524033e-05	8.164791e-06	
12.796206	6.357820e-06	4.507986e-05	1.553286e-05	8.088898e-06	
12.797206	6.348213e-06	4.530043e-05	1.583300e-05	8.015305e-06	
12.798206	6.338071e-06	4.551787e-05	1.614060e-05	7.944001e-06	
12.799206	6.327435e-06	4.573288e-05	1.645552e-05	7.874979e-06	
12.800207	6.316347e-06	4.594618e-05	1.677763e-05	7.808228e-06	
12.801207	6.304848e-06	4.615849e-05	1.710678e-05	7.743740e-06	
12.802207	6.292979e-06	4.637052e-05	1.744284e-05	7.681505e-06	
12.803207	6.280782e-06	4.658297e-05	1.778567e-05	7.621514e-06	
12.804207	6.268297e-06	4.679658e-05	1.813513e-05	7.563758e-06	
12.805207	6.255567e-06	4.701204e-05	1.849108e-05	7.508228e-06	
12.806208	6.242632e-06	4.723008e-05	1.885338e-05	7.454914e-06	
12.807208	6.229534e-06	4.745140e-05	1.922189e-05	7.403808e-06	
12.808208	6.216314e-06	4.767673e-05	1.959648e-05	7.354900e-06	
12.809208	6.203013e-06	4.790677e-05	1.997701e-05	7.308182e-06	
12.810208	6.189672e-06	4.814224e-05	2.036333e-05	7.263643e-06	
12.811208	6.176334e-06	4.838385e-05	2.075532e-05	7.221275e-06	
12.812208	6.163039e-06	4.863232e-05	2.115282e-05	7.181069e-06	
12.813209	6.149828e-06	4.888837e-05	2.155570e-05	7.143015e-06	
12.814209	6.136743e-06	4.915269e-05	2.196383e-05	7.107104e-06	
12.815209	6.123825e-06	4.942601e-05	2.237706e-05	7.073328e-06	
12.816209	6.111115e-06	4.970905e-05	2.279525e-05	7.041676e-06	
12.817209	6.098656e-06	5.000251e-05	2.321827e-05	7.012140e-06	
12.818209	6.086487e-06	5.030711e-05	2.364598e-05	6.984711e-06	
12.819209	6.074650e-06	5.062356e-05	2.407823e-05	6.959379e-06	
12.820210	6.063187e-06	5.095258e-05	2.451490e-05	6.936135e-06	
12.821210	6.052138e-06	5.129488e-05	2.495584e-05	6.914970e-06	
12.822210	6.041546e-06	5.165118e-05	2.540091e-05	6.895876e-06	
12.823210	6.031451e-06	5.202219e-05	2.584997e-05	6.878841e-06	
12.824210	6.021895e-06	5.240861e-05	2.630289e-05	6.863859e-06	
12.825210	6.012916e-06	5.281110e-05	2.675953e-05	6.850914e-06	
12.826211	6.004529e-06	5.322956e-05	2.721979e-05	6.839952e-06	
12.827211	5.996730e-06	5.366345e-05	2.768358e-05	6.830890e-06	
12.828211	5.989518e-06	5.411222e-05	2.815084e-05	6.823648e-06	
12.829211	5.982891e-06	5.457535e-05	2.862147e-05	6.818143e-06	
12.830211	5.976847e-06	5.505228e-05	2.909539e-05	6.814294e-06	
12.831211	5.971385e-06	5.554248e-05	2.957253e-05	6.812020e-06	
12.832211	5.966501e-06	5.604542e-05	3.005281e-05	6.811238e-06	
12.833212	5.962195e-06	5.656054e-05	3.053615e-05	6.811867e-06	
12.834212	5.958465e-06	5.708731e-05	3.102245e-05	6.813827e-06	
12.835212	5.955307e-06	5.762519e-05	3.151165e-05	6.817034e-06	
12.836212	5.952721e-06	5.817364e-05	3.200367e-05	6.821408e-06	
12.837212	5.950704e-06	5.873212e-05	3.249842e-05	6.826866e-06	
12.838212	5.949255e-06	5.930009e-05	3.299582e-05	6.833328e-06	
12.839212	5.948372e-06	5.987701e-05	3.349579e-05	6.840712e-06	
12.840213	5.948052e-06	6.046234e-05	3.399826e-05	6.848936e-06	
12.841213	5.948293e-06	6.105554e-05	3.450313e-05	6.857918e-06	
12.842213	5.949095e-06	6.165606e-05	3.501034e-05	6.867577e-06	
12.843213	5.950454e-06	6.226338e-05	3.551980e-05	6.877832e-06	
12.844213	5.952368e-06	6.287694e-05	3.603142e-05	6.888600e-06	
12.845213	5.954837e-06	6.349621e-05	3.654514e-05	6.899801e-06	
12.846214	5.957857e-06	6.412065e-05	3.706086e-05	6.911352e-06	
12.847214	5.961427e-06	6.474972e-05	3.757852e-05	6.923173e-06	
12.848214	5.965546e-06	6.538288e-05	3.809802e-05	6.935180e-06	
12.849214	5.970210e-06	6.601959e-05	3.861928e-05	6.947294e-06	
12.850214	5.975418e-06	6.665930e-05	3.914224e-05	6.959432e-06	
12.851214	5.981168e-06	6.730149e-05	3.966680e-05	6.971513e-06	
12.852214	5.987459e-06	6.794560e-05	4.019289e-05	6.983454e-06	
12.853215	5.994287e-06	6.859110e-05	4.072042e-05	6.995176e-06	
12.854215	6.001652e-06	6.923745e-05	4.124932e-05	7.006595e-06	
12.855215	6.009551e-06	6.988411e-05	4.177950e-05	7.017630e-06	
12.856215	6.017983e-06	7.053053e-05	4.231088e-05	7.028201e-06	
12.857215	6.026944e-06	7.117619e-05	4.284339e-05	7.038224e-06	
12.858215	6.036434e-06	7.182053e-05	4.337694e-05	7.047619e-06	
12.859215	6.046451e-06	7.246302e-05	4.391146e-05	7.056304e-06	
12.860216	6.056992e-06	7.310312e-05	4.444685e-05	7.064198e-06	
12.861216	6.068056e-06	7.374029e-05	4.498305e-05	7.071218e-06	
12.862216	6.079640e-06	7.437398e-05	4.551997e-05	7.077283e-06	
12.863216	6.091743e-06	7.500366e-05	4.605753e-05	7.082313e-06	
12.864216	6.104362e-06	7.562880e-05	4.659565e-05	7.086224e-06	
12.865216	6.117496e-06	7.624883e-05	4.713425e-05	7.088936e-06	
12.866216	6.131143e-06	7.686324e-05	4.767324e-05	7.090366e-06	
12.867217	6.145301e-06	7.747147e-05	4.821256e-05	7.090434e-06	
12.868217	6.159968e-06	7.807300e-05	4.875211e-05	7.089058e-06	
12.869217	6.175141e-06	7.866727e-05	4.929183e-05	7.086156e-06	
12.870217	6.190820e-06	7.925374e-05	4.983162e-05	7.081646e-06	
12.871217	6.207001e-06	7.983189e-05	5.037140e-05	7.075448e-06	
12.872217	6.223684e-06	8.040116e-05	5.091110e-05	7.067478e-06	
12.873218	6.240866e-06	8.096102e-05	5.145064e-05	7.057657e-06	
12.874218	6.258544e-06	8.151093e-05	5.198993e-05	7.045902e-06	
12.875218	6.276723e-06	8.205034e-05	5.252889e-05	7.032143e-06	
12.876218	6.295453e-06	8.257862e-05	5.306725e-05	7.016435e-06	
12.877218	6.314814e-06	8.309511e-05	5.360469e-05	6.998900e-06	
12.878218	6.334885e-06	8.359914e-05	5.414088e-05	6.979664e-06	
12.879218	6.355746e-06	8.409004e-05	5.467547e-05	6.958850e-06	
12.880219	6.377476e-06	8.456714e-05	5.520814e-05	6.936582e-06	
12.881219	6.400155e-06	8.502977e-05	5.573854e-05	6.912986e-06	
12.882219	6.423863e-06	8.547727e-05	5.626634e-05	6.888186e-06	
12.883219	6.448678e-06	8.590896e-05	5.679121e-05	6.862306e-06	
12.884219	6.474681e-06	8.632418e-05	5.731281e-05	6.835470e-06	
12.885219	6.501952e-06	8.672225e-05	5.783081e-05	6.807803e-06	
12.886219	6.530569e-06	8.710252e-05	5.834486e-05	6.779430e-06	
12.887220	6.560612e-06	8.746430e-05	5.885465e-05	6.750474e-06	
12.888220	6.592161e-06	8.780694e-05	5.935982e-05	6.721060e-06	
12.889220	6.625295e-06	8.812976e-05	5.986004e-05	6.691313e-06	
12.890220	6.660095e-06	8.843210e-05	6.035498e-05	6.661356e-06	
12.891220	6.696639e-06	8.871328e-05	6.084431e-05	6.631315e-06	
12.892220	6.735007e-06	8.897264e-05	6.132769e-05	6.601314e-06	
12.893221	6.775278e-06	8.920951e-05	6.180477e-05	6.571477e-06	
12.894221	6.817533e-06	8.942321e-05	6.227524e-05	6.541928e-06	
12.895221	6.861851e-06	8.961309e-05	6.273875e-05	6.512793e-06	
12.896221	6.908311e-06	8.977847e-05	6.319496e-05	6.484194e-06	
12.897221	6.956993e-06	8.991868e-05	6.364355e-05	6.456258e-06	
12.898221	7.007976e-06	9.003306e-05	6.408417e-05	6.429107e-06	
12.899221	7.061340e-06	9.012094e-05	6.451650e-05	6.402868e-06	
12.900222	7.117165e-06	9.018164e-05	6.494019e-05	6.377663e-06	
12.901222	7.175531e-06	9.021450e-05	6.535491e-05	6.353618e-06	
12.902222	7.236515e-06	9.021885e-05	6.576032e-05	6.330856e-06	
12.903222	7.300200e-06	9.019402e-05	6.615610e-05	6.309503e-06	
12.904222	7.366663e-06	9.013935e-05	6.654190e-05	6.289682e-06	
12.905222	7.435984e-06	9.005416e-05	6.691739e-05	6.271518e-06	
12.906222	7.508243e-06	8.993779e-05	6.728223e-05	6.255136e-06	
12.907223	7.583520e-06	8.978956e-05	6.763609e-05	6.240660e-06	
12.908223	7.661894e-06	8.960881e-05	6.797864e-05	6.228214e-06	
12.909223	7.743445e-06	8.939487e-05	6.830953e-05	6.217922e-06	
12.910223	7.828252e-06	8.914707e-05	6.862843e-05	6.209910e-06	
12.911223	7.916394e-06	8.886474e-05	6.893501e-05	6.204301e-06	
12.912223	8.007952e-06	8.854722e-05	6.922894e-05	6.201220e-06	
12.913224	8.103005e-06	8.819383e-05	6.950987e-05	6.200791e-06	
12.914224	8.201633e-06	8.780390e-05	6.977747e-05	6.203139e-06	
12.915224	8.303914e-06	8.737678e-05	7.003141e-05	6.208388e-06	
12.916224	8.409929e-06	8.691178e-05	7.027134e-05	6.216662e-06	
12.917224	8.519757e-06	8.640824e-05	7.049695e-05	6.228086e-06	
12.918224	8.633478e-06	8.586550e-05	7.070788e-05	6.242785e-06	
12.919224	8.751171e-06	8.528287e-05	7.090381e-05	6.260883e-06	
12.920225	8.872916e-06	8.465970e-05	7.108440e-05	6.282503e-06	
12.921225	8.998793e-06	8.399532e-05	7.124931e-05	6.307771e-06	
12.922225	9.128880e-06	8.328905e-05	7.139821e-05	6.336811e-06	
12.923225	9.263258e-06	8.254023e-05	7.153076e-05	6.369748e-06	
12.924225	9.402007e-06	8.174819e-05	7.164663e-05	6.406705e-06	
12.925225	9.545183e-06	8.091240e-05	7.174556e-05	6.447792e-06	
12.926225	9.692643e-06	8.003370e-05	7.182796e-05	6.492976e-06	
12.927226	9.844124e-06	7.911369e-05	7.189467e-05	6.542140e-06	
12.928226	9.999364e-06	7.815400e-05	7.194649e-05	6.595167e-06	
12.929226	1.015810e-05	7.715623e-05	7.198425e-05	6.651943e-06	
12.930226	1.032007e-05	7.612200e-05	7.200878e-05	6.712349e-06	
12.931226	1.048501e-05	7.505294e-05	7.202088e-05	6.776270e-06	
12.932226	1.065266e-05	7.395064e-05	7.202139e-05	6.843590e-06	
12.933227	1.082276e-05	7.281674e-05	7.201112e-05	6.914191e-06	
12.934227	1.099505e-05	7.165284e-05	7.199090e-05	6.987957e-06	
12.935227	1.116925e-05	7.046056e-05	7.196155e-05	7.064773e-06	
12.936227	1.134511e-05	6.924152e-05	7.192388e-05	7.144520e-06	
12.937227	1.152238e-05	6.799733e-05	7.187872e-05	7.227084e-06	
12.938227	1.170077e-05	6.672961e-05	7.182689e-05	7.312348e-06	
12.939227	1.188004e-05	6.543997e-05	7.176921e-05	7.400194e-06	
12.940228	1.205992e-05	6.413003e-05	7.170650e-05	7.490508e-06	
12.941228	1.224014e-05	6.280140e-05	7.163959e-05	7.583171e-06	
12.942228	1.242045e-05	6.145571e-05	7.156928e-05	7.678069e-06	
12.943228	1.260058e-05	6.009456e-05	7.149642e-05	7.775083e-06	
12.944228	1.278027e-05	5.871957e-05	7.142181e-05	7.874099e-06	
12.945228	1.295926e-05	5.733236e-05	7.134627e-05	7.974999e-06	
12.946228	1.313728e-05	5.593454e-05	7.127064e-05	8.077668e-06	
12.947229	1.331408e-05	5.452773e-05	7.119572e-05	8.181988e-06	
12.948229	1.348938e-05	5.311354e-05	7.112234e-05	8.287843e-06	
12.949229	1.366294e-05	5.169360e-05	7.105133e-05	8.395117e-06	
12.950229	1.383447e-05	5.026951e-05	7.098350e-05	8.503693e-06	
12.951229	1.400373e-05	4.884289e-05	7.091967e-05	8.613456e-06	
12.952229	1.417046e-05	4.741535e-05	7.086066e-05	8.724287e-06	
12.953230	1.433437e-05	4.598852e-05	7.080730e-05	8.836072e-06	
12.954230	1.449523e-05	4.456401e-05	7.076041e-05	8.948693e-06	
12.955230	1.465275e-05	4.314343e-05	7.072080e-05	9.062035e-06	
12.956230	1.480669e-05	4.172840e-05	7.068931e-05	9.175980e-06	
12.957230	1.495678e-05	4.032053e-05	7.066674e-05	9.290412e-06	
12.958230	1.510275e-05	3.892144e-05	7.065392e-05	9.405215e-06	
12.959230	1.524434e-05	3.753275e-05	7.065168e-05	9.520273e-06	
12.960231	1.538129e-05	3.615607e-05	7.066082e-05	9.635469e-06	
12.961231	1.551334e-05	3.479302e-05	7.068219e-05	9.750686e-06	
12.962231	1.564023e-05	3.344521e-05	7.071658e-05	9.865808e-06	
12.963231	1.576169e-05	3.211426e-05	7.076484e-05	9.980719e-06	
12.964231	1.587746e-05	3.080179e-05	7.082777e-05	1.009530e-05	
12.965231	1.598728e-05	2.950940e-05	7.090620e-05	1.020944e-05	
12.966231	1.609089e-05	2.823872e-05	7.100094e-05	1.032302e-05	
12.967232	1.618802e-05	2.699136e-05	7.111283e-05	1.043592e-05	
12.968232	1.627841e-05	2.576894e-05	7.124268e-05	1.054803e-05	
12.969232	1.636179e-05	2.457307e-05	7.139131e-05	1.065922e-05	
12.970232	1.643792e-05	2.340537e-05	7.155955e-05	1.076940e-05	
12.971232	1.650651e-05	2.226745e-05	7.174821e-05	1.087842e-05	
12.972232	1.656732e-05	2.116093e-05	7.195812e-05	1.098619e-05	
12.973233	1.662008e-05	2.008742e-05	7.219009e-05	1.109259e-05	
12.974233	1.666452e-05	1.904855e-05	7.244495e-05	1.119749e-05	
12.975233	1.670043e-05	1.804583e-05	7.272339e-05	1.130078e-05	
12.976233	1.672790e-05	1.707998e-05	7.302490e-05	1.140240e-05	
12.977233	1.674726e-05	1.615123e-05	7.334829e-05	1.150228e-05	
12.978233	1.675880e-05	1.525982e-05	7.369237e-05	1.160038e-05	
12.979233	1.676282e-05	1.440599e-05	7.405596e-05	1.169664e-05	
12.980234	1.675964e-05	1.358999e-05	7.443785e-05	1.179101e-05	
12.981234	1.674956e-05	1.281205e-05	7.483687e-05	1.188343e-05	
12.982234	1.673288e-05	1.207241e-05	7.525182e-05	1.197384e-05	
12.983234	1.670991e-05	1.137131e-05	7.568152e-05	1.206221e-05	
12.984234	1.668096e-05	1.070900e-05	7.612476e-05	1.214847e-05	
12.985234	1.664632e-05	1.008570e-05	7.658037e-05	1.223257e-05	
12.986234	1.660631e-05	9.501667e-06	7.704715e-05	1.231445e-05	
12.987235	1.656123e-05	8.957131e-06	7.752391e-05	1.239407e-05	
12.988235	1.651138e-05	8.452334e-06	7.800946e-05	1.247137e-05	
12.989235	1.645708e-05	7.987515e-06	7.850262e-05	1.254630e-05	
12.990235	1.639861e-05	7.562915e-06	7.900218e-05	1.261879e-05	
12.991235	1.633630e-05	7.178772e-06	7.950697e-05	1.268881e-05	
12.992235	1.627045e-05	6.835327e-06	8.001579e-05	1.275629e-05	
12.993236	1.620135e-05	6.532818e-06	8.052745e-05	1.282119e-05	
12.994236	1.612932e-05	6.271485e-06	8.104076e-05	1.288344e-05	
12.995236	1.605466e-05	6.051569e-06	8.155454e-05	1.294300e-05	
12.996236	1.597768e-05	5.873307e-06	8.206758e-05	1.299981e-05	
12.997236	1.589868e-05	5.736941e-06	8.257871e-05	1.305383e-05	
12.998236	1.581796e-05	5.642709e-06	8.308672e-05	1.310498e-05	
12.999236	1.573584e-05	5.590851e-06	8.359044e-05	1.315323e-05	
13.000237	1.565261e-05	5.581607e-06	8.408867e-05	1.319852e-05	
13.001237	1.556859e-05	5.615216e-06	8.458022e-05	1.324079e-05	
13.002237	1.548408e-05	5.691917e-06	8.506390e-05	1.328000e-05	
13.003237	1.539937e-05	5.811950e-06	8.553852e-05	1.331608e-05	
13.004237	1.531479e-05	5.975556e-06	8.600290e-05	1.334899e-05	
13.005237	1.523062e-05	6.182972e-06	8.645583e-05	1.337867e-05	
13.006237	1.514719e-05	6.434439e-06	8.689614e-05	1.340507e-05	
13.007238	1.506478e-05	6.730197e-06	8.732262e-05	1.342813e-05	
13.008238	1.498372e-05	7.070485e-06	8.773410e-05	1.344780e-05	
13.009238	1.490430e-05	7.455541e-06	8.812937e-05	1.346404e-05	
13.010238	1.482683e-05	7.885607e-06	8.850726e-05	1.347677e-05	
13.011238	1.475161e-05	8.360922e-06	8.886656e-05	1.348596e-05	
13.012238	1.467895e-05	8.881724e-06	8.920610e-05	1.349154e-05	
13.013239	1.460916e-05	9.448254e-06	8.952468e-05	1.349347e-05	
13.014239	1.454254e-05	1.006075e-05	8.982111e-05	1.349170e-05	
13.015239	1.447939e-05	1.071946e-05	9.009419e-05	1.348615e-05	
13.016239	1.442002e-05	1.142461e-05	9.034275e-05	1.347680e-05	
13.017239	1.436473e-05	1.217644e-05	9.056559e-05	1.346357e-05	
13.018239	1.431384e-05	1.297520e-05	9.076152e-05	1.344642e-05	
13.019239	1.426764e-05	1.382113e-05	9.092934e-05	1.342529e-05	
13.020240	1.422644e-05	1.471446e-05	9.106788e-05	1.340014e-05	
13.021240	1.419054e-05	1.565543e-05	9.117594e-05	1.337090e-05	
13.022240	1.416026e-05	1.664429e-05	9.125233e-05	1.333752e-05	
13.023240	1.413590e-05	1.768127e-05	9.129585e-05	1.329996e-05	
13.024240	1.411775e-05	1.876661e-05	9.130533e-05	1.325815e-05	
13.025240	1.410610e-05	1.990036e-05	9.127975e-05	1.321206e-05	
13.026240	1.410093e-05	2.108066e-05	9.121988e-05	1.316181e-05	
13.027241	1.410207e-05	2.230468e-05	9.112741e-05	1.310759e-05	
13.028241	1.410934e-05	2.356954e-05	9.100404e-05	1.304961e-05	
13.029241	1.412257e-05	2.487240e-05	9.085150e-05	1.298807e-05	
13.030241	1.414159e-05	2.621039e-05	9.067148e-05	1.292316e-05	
13.031241	1.416622e-05	2.758065e-05	9.046570e-05	1.285510e-05	
13.032241	1.419628e-05	2.898031e-05	9.023587e-05	1.278407e-05	
13.033242	1.423162e-05	3.040653e-05	8.998369e-05	1.271027e-05	
13.034242	1.427204e-05	3.185643e-05	8.971087e-05	1.263392e-05	
13.035242	1.431738e-05	3.332716e-05	8.941913e-05	1.255521e-05	
13.036242	1.436747e-05	3.481586e-05	8.911016e-05	1.247433e-05	
13.037242	1.442212e-05	3.631967e-05	8.878569e-05	1.239150e-05	
13.038242	1.448118e-05	3.783572e-05	8.844741e-05	1.230691e-05	
13.039242	1.454445e-05	3.936116e-05	8.809704e-05	1.222075e-05	
13.040243	1.461178e-05	4.089312e-05	8.773629e-05	1.213324e-05	
13.041243	1.468298e-05	4.242875e-05	8.736687e-05	1.204457e-05	
13.042243	1.475788e-05	4.396519e-05	8.699047e-05	1.195494e-05	
13.043243	1.483631e-05	4.549957e-05	8.660882e-05	1.186455e-05	
13.044243	1.491809e-05	4.702903e-05	8.622363e-05	1.177361e-05	
13.045243	1.500306e-05	4.855072e-05	8.583659e-05	1.168231e-05	
13.046243	1.509103e-05	5.006177e-05	8.544942e-05	1.159085e-05	
13.047244	1.518184e-05	5.155932e-05	8.506384e-05	1.149944e-05	
13.048244	1.527530e-05	5.304051e-05	8.468154e-05	1.140826e-05	
13.049244	1.537125e-05	5.450249e-05	8.430423e-05	1.131754e-05	
13.050244	1.546951e-05	5.594239e-05	8.393363e-05	1.122746e-05	
13.051244	1.556991e-05	5.735735e-05	8.357145e-05	1.113822e-05	
13.052244	1.567228e-05	5.874451e-05	8.321938e-05	1.105003e-05	
13.053244	1.577644e-05	6.010101e-05	8.287915e-05	1.096309e-05	
13.054245	1.588221e-05	6.142399e-05	8.255247e-05	1.087759e-05	
13.055245	1.598943e-05	6.271059e-05	8.224103e-05	1.079374e-05	
13.056245	1.609792e-05	6.395795e-05	8.194654e-05	1.071173e-05	
13.057245	1.620750e-05	6.516320e-05	8.167073e-05	1.063177e-05	
13.058245	1.631800e-05	6.632350e-05	8.141529e-05	1.055406e-05	
13.059245	1.642926e-05	6.743597e-05	8.118194e-05	1.047880e-05	
13.060246	1.654109e-05	6.849776e-05	8.097238e-05	1.040619e-05	
13.061246	1.665332e-05	6.950600e-05	8.078833e-05	1.033643e-05	
13.062246	1.676578e-05	7.045784e-05	8.063149e-05	1.026971e-05	
13.063246	1.687829e-05	7.135042e-05	8.050356e-05	1.020625e-05	
13.064246	1.699068e-05	7.218087e-05	8.040627e-05	1.014623e-05	
13.065246	1.710278e-05	7.294634e-05	8.034132e-05	1.008987e-05	
13.066246	1.721441e-05	7.364396e-05	8.031041e-05	1.003735e-05	
13.067247	1.732541e-05	7.427088e-05	8.031526e-05	9.988892e-06	
13.068247	1.743558e-05	7.482423e-05	8.035757e-05	9.944681e-06	
13.069247	1.754477e-05	7.530115e-05	8.043906e-05	9.904923e-06	
13.070247	1.765280e-05	7.569878e-05	8.056143e-05	9.869816e-06	
13.071247	1.775949e-05	7.601427e-05	8.072639e-05	9.839563e-06	
13.072247	1.786467e-05	7.624475e-05	8.093566e-05	9.814362e-06	
13.073247	1.796817e-05	7.638736e-05	8.119093e-05	9.794415e-06	
13.074248	1.806981e-05	7.643925e-05	8.149392e-05	9.779922e-06	
13.075248	1.816943e-05	7.639795e-05	8.184609e-05	9.771061e-06	
13.076248	1.826701e-05	7.626478e-05	8.224655e-05	9.767818e-06	
13.077248	1.836259e-05	7.604298e-05	8.269322e-05	9.770074e-06	
13.078248	1.845620e-05	7.573586e-05	8.318399e-05	9.777709e-06	
13.079248	1.854789e-05	7.534670e-05	8.371675e-05	9.790605e-06	
13.080249	1.863769e-05	7.487879e-05	8.428940e-05	9.808643e-06	
13.081249	1.872566e-05	7.433541e-05	8.489983e-05	9.831702e-06	
13.082249	1.881182e-05	7.371985e-05	8.554593e-05	9.859665e-06	
13.083249	1.889622e-05	7.303540e-05	8.622559e-05	9.892411e-06	
13.084249	1.897891e-05	7.228534e-05	8.693672e-05	9.929822e-06	
13.085249	1.905991e-05	7.147297e-05	8.767719e-05	9.971779e-06	
13.086249	1.913927e-05	7.060156e-05	8.844491e-05	1.001816e-05	
13.087250	1.921704e-05	6.967442e-05	8.923776e-05	1.006885e-05	
13.088250	1.929325e-05	6.869481e-05	9.005365e-05	1.012373e-05	
13.089250	1.936795e-05	6.766604e-05	9.089046e-05	1.018267e-05	
13.090250	1.944117e-05	6.659139e-05	9.174608e-05	1.024557e-05	
13.091250	1.951296e-05	6.547414e-05	9.261842e-05	1.031229e-05	
13.092250	1.958335e-05	6.431759e-05	9.350536e-05	1.038273e-05	
13.093250	1.965239e-05	6.312501e-05	9.440479e-05	1.045676e-05	
13.094251	1.972012e-05	6.189970e-05	9.531461e-05	1.053426e-05	
13.095251	1.978658e-05	6.064495e-05	9.623271e-05	1.061511e-05	
13.096251	1.985180e-05	5.936404e-05	9.715699e-05	1.069920e-05	
13.097251	1.991584e-05	5.806026e-05	9.808534e-05	1.078640e-05	
13.098251	1.997873e-05	5.673689e-05	9.901565e-05	1.087660e-05	
13.099251	2.004051e-05	5.539723e-05	9.994581e-05	1.096968e-05	
13.100252	2.010122e-05	5.404456e-05	1.008737e-04	1.106551e-05	
13.101252	2.016090e-05	5.268216e-05	1.017973e-04	1.116398e-05	
13.102252	2.021960e-05	5.131333e-05	1.027143e-04	1.126497e-05	
13.103252	2.027735e-05	4.994136e-05	1.036229e-04	1.136836e-05	
13.104252	2.033420e-05	4.856952e-05	1.045207e-04	1.147403e-05	
13.105252	2.039019e-05	4.720111e-05	1.054057e-04	1.158186e-05	
13.106252	2.044535e-05	4.583941e-05	1.062759e-04	1.169173e-05	
13.107253	2.049973e-05	4.448771e-05	1.071290e-04	1.180353e-05	
13.108253	2.055337e-05	4.314930e-05	1.079630e-04	1.191713e-05	
13.109253	2.060631e-05	4.182747e-05	1.087759e-04	1.203241e-05	
13.110253	2.065858e-05	4.052550e-05	1.095654e-04	1.214926e-05	
13.111253	2.071024e-05	3.924668e-05	1.103294e-04	1.226756e-05	
13.112253	2.076132e-05	3.799430e-05	1.110660e-04	1.238718e-05	
13.113253	2.081186e-05	3.677164e-05	1.117728e-04	1.250801e-05	
13.114254	2.086191e-05	3.558199e-05	1.124480e-04	1.262993e-05	
13.115254	2.091150e-05	3.442864e-05	1.130893e-04	1.275282e-05	
13.116254	2.096067e-05	3.331488e-05	1.136946e-04	1.287656e-05	
13.117254	2.100947e-05	3.224399e-05	1.142618e-04	1.300102e-05	
13.118254	2.105793e-05	3.121926e-05	1.147889e-04	1.312610e-05	
13.119254	2.110610e-05	3.024397e-05	1.152737e-04	1.325168e-05	
13.120255	2.115402e-05	2.932142e-05	1.157141e-04	1.337762e-05	
13.121255	2.120173e-05	2.845490e-05	1.161080e-04	1.350382e-05	
13.122255	2.124927e-05	2.764768e-05	1.164533e-04	1.363016e-05	
13.123255	2.129667e-05	2.690306e-05	1.167478e-04	1.375651e-05	
13.124255	2.134399e-05	2.622432e-05	1.169896e-04	1.388276e-05	
13.125255	2.139125e-05	2.561439e-05	1.171767e-04	1.400879e-05	
13.126255	2.143850e-05	2.507293e-05	1.173093e-04	1.413456e-05	
13.127256	2.148575e-05	2.459794e-05	1.173890e-04	1.426008e-05	
13.128256	2.153303e-05	2.418740e-05	1.174171e-04	1.438533e-05	
13.129256	2.158035e-05	2.383928e-05	1.173950e-04	1.451031e-05	
13.130256	2.162776e-05	2.355158e-05	1.173241e-04	1.463502e-05	
13.131256	2.167526e-05	2.332225e-05	1.172058e-04	1.475945e-05	
13.132256	2.172289e-05	2.314930e-05	1.170415e-04	1.488360e-05	
13.133256	2.177067e-05	2.303068e-05	1.168327e-04	1.500747e-05	
13.134257	2.181862e-05	2.296439e-05	1.165807e-04	1.513104e-05	
13.135257	2.186676e-05	2.294839e-05	1.162870e-04	1.525431e-05	
13.136257	2.191513e-05	2.298068e-05	1.159529e-04	1.537729e-05	
13.137257	2.196374e-05	2.305922e-05	1.155799e-04	1.549997e-05	
13.138257	2.201262e-05	2.318200e-05	1.151694e-04	1.562233e-05	
13.139257	2.206179e-05	2.334699e-05	1.147227e-04	1.574439e-05	
13.140258	2.211128e-05	2.355218e-05	1.142413e-04	1.586612e-05	
13.141258	2.216111e-05	2.379554e-05	1.137265e-04	1.598754e-05	
13.142258	2.221130e-05	2.407505e-05	1.131799e-04	1.610863e-05	
13.143258	2.226188e-05	2.438869e-05	1.126027e-04	1.622939e-05	
13.144258	2.231288e-05	2.473444e-05	1.119965e-04	1.634982e-05	
13.145258	2.236431e-05	2.511028e-05	1.113625e-04	1.646991e-05	
13.146258	2.241620e-05	2.551418e-05	1.107023e-04	1.658966e-05	
13.147259	2.246858e-05	2.594413e-05	1.100172e-04	1.670906e-05	
13.148259	2.252147e-05	2.639810e-05	1.093086e-04	1.682811e-05	
13.149259	2.257489e-05	2.687408e-05	1.085779e-04	1.694681e-05	
13.150259	2.262887e-05	2.737004e-05	1.078266e-04	1.706514e-05	
13.151259	2.268343e-05	2.788396e-05	1.070560e-04	1.718311e-05	
13.152259	2.273860e-05	2.841381e-05	1.062676e-04	1.730071e-05	
13.153259	2.279439e-05	2.895759e-05	1.054627e-04	1.741794e-05	
13.154260	2.285084e-05	2.951326e-05	1.046428e-04	1.753480e-05	
13.155260	2.290797e-05	3.007880e-05	1.038092e-04	1.765127e-05	
13.156260	2.296580e-05	3.065220e-05	1.029634e-04	1.776735e-05	
13.157260	2.302436e-05	3.123144e-05	1.021068e-04	1.788305e-05	
13.158260	2.308366e-05	3.181448e-05	1.012408e-04	1.799835e-05	
13.159260	2.314374e-05	3.239931e-05	1.003667e-04	1.811326e-05	
13.160261	2.320462e-05	3.298392e-05	9.948610e-05	1.822776e-05	
13.161261	2.326632e-05	3.356627e-05	9.860026e-05	1.834185e-05	
13.162261	2.332887e-05	3.414435e-05	9.771063e-05	1.845553e-05	
13.163261	2.339229e-05	3.471613e-05	9.681860e-05	1.856880e-05	
13.164261	2.345660e-05	3.527960e-05	9.592560e-05	1.868164e-05	
13.165261	2.352183e-05	3.583273e-05	9.503303e-05	1.879407e-05	
13.166261	2.358800e-05	3.637350e-05	9.414228e-05	1.890606e-05	
13.167262	2.365514e-05	3.689989e-05	9.325478e-05	1.901762e-05	
13.168262	2.372328e-05	3.740988e-05	9.237191e-05	1.912874e-05	
13.169262	2.379242e-05	3.790145e-05	9.149510e-05	1.923942e-05	
13.170262	2.386261e-05	3.837257e-05	9.062574e-05	1.934966e-05	
13.171262	2.393386e-05	3.882123e-05	8.976524e-05	1.945944e-05	
13.172262	2.400619e-05	3.924541e-05	8.891501e-05	1.956877e-05	
13.173262	2.407964e-05	3.964308e-05	8.807646e-05	1.967764e-05	
13.174263	2.415422e-05	4.001222e-05	8.725098e-05	1.978605e-05	
13.175263	2.422996e-05	4.035099e-05	8.643988e-05	1.989398e-05	
13.176263	2.430681e-05	4.065915e-05	8.564347e-05	2.000127e-05	
13.177263	2.438472e-05	4.093723e-05	8.486160e-05	2.010774e-05	
13.178263	2.446363e-05	4.118581e-05	8.409411e-05	2.021315e-05	
13.179263	2.454346e-05	4.140544e-05	8.334081e-05	2.031731e-05	
13.180264	2.462416e-05	4.159666e-05	8.260156e-05	2.042001e-05	
13.181264	2.470567e-05	4.176005e-05	8.187617e-05	2.052104e-05	
13.182264	2.478793e-05	4.189615e-05	8.116448e-05	2.062018e-05	
13.183264	2.487086e-05	4.200553e-05	8.046633e-05	2.071722e-05	
13.184264	2.495441e-05	4.208874e-05	7.978155e-05	2.081197e-05	
13.185264	2.503852e-05	4.214634e-05	7.910997e-05	2.090420e-05	
13.186264	2.512312e-05	4.217888e-05	7.845142e-05	2.099372e-05	
13.187265	2.520815e-05	4.218693e-05	7.780574e-05	2.108030e-05	
13.188265	2.529355e-05	4.217103e-05	7.717276e-05	2.116375e-05	
13.189265	2.537926e-05	4.213176e-05	7.655232e-05	2.124384e-05	
13.190265	2.546521e-05	4.206965e-05	7.594424e-05	2.132038e-05	
13.191265	2.555134e-05	4.198528e-05	7.534836e-05	2.139314e-05	
13.192265	2.563759e-05	4.187919e-05	7.476451e-05	2.146193e-05	
13.193265	2.572389e-05	4.175195e-05	7.419253e-05	2.152654e-05	
13.194266	2.581019e-05	4.160411e-05	7.363225e-05	2.158675e-05	
13.195266	2.589642e-05	4.143622e-05	7.308350e-05	2.164235e-05	
13.196266	2.598252e-05	4.124886e-05	7.254611e-05	2.169314e-05	
13.197266	2.606843e-05	4.104256e-05	7.201992e-05	2.173890e-05	
13.198266	2.615408e-05	4.081790e-05	7.150476e-05	2.177943e-05	
13.199266	2.623941e-05	4.057542e-05	7.100046e-05	2.181451e-05	
13.200267	2.632436e-05	4.031569e-05	7.050686e-05	2.184395e-05	
13.201267	2.640887e-05	4.003926e-05	7.002379e-05	2.186752e-05	
13.202267	2.649287e-05	3.974668e-05	6.955109e-05	2.188502e-05	
13.203267	2.657630e-05	3.943852e-05	6.908858e-05	2.189623e-05	
13.204267	2.665910e-05	3.911533e-05	6.863609e-05	2.190096e-05	
13.205267	2.674121e-05	3.877767e-05	6.819347e-05	2.189899e-05	
13.206267	2.682256e-05	3.842610e-05	6.776055e-05	2.189011e-05	
13.207268	2.690309e-05	3.806117e-05	6.733715e-05	2.187411e-05	
13.208268	2.698274e-05	3.768344e-05	6.692311e-05	2.185078e-05	
13.209268	2.706145e-05	3.729346e-05	6.651826e-05	2.181992e-05	
13.210268	2.713916e-05	3.689180e-05	6.612245e-05	2.178130e-05	
13.211268	2.721579e-05	3.647901e-05	6.573549e-05	2.173473e-05	
13.212268	2.729129e-05	3.605565e-05	6.535722e-05	2.168000e-05	
13.213268	2.736560e-05	3.562227e-05	6.498748e-05	2.161689e-05	
13.214269	2.743866e-05	3.517944e-05	6.462610e-05	2.154520e-05	
13.215269	2.751039e-05	3.472771e-05	6.427292e-05	2.146471e-05	
13.216269	2.758075e-05	3.426763e-05	6.392775e-05	2.137522e-05	
13.217269	2.764966e-05	3.379976e-05	6.359045e-05	2.127651e-05	
13.218269	2.771707e-05	3.332467e-05	6.326083e-05	2.116839e-05	
13.219269	2.778290e-05	3.284290e-05	6.293874e-05	2.105063e-05	
13.220270	2.784711e-05	3.235502e-05	6.262400e-05	2.092303e-05	
13.221270	2.790963e-05	3.186157e-05	6.231646e-05	2.078538e-05	
13.222270	2.797038e-05	3.136313e-05	6.201594e-05	2.063747e-05	
13.223270	2.802933e-05	3.086024e-05	6.172227e-05	2.047909e-05	
13.224270	2.808639e-05	3.035346e-05	6.143530e-05	2.031004e-05	
13.225270	2.814149e-05	2.984337e-05	6.115484e-05	2.013014e-05	
13.226270	2.819448e-05	2.933064e-05	6.088070e-05	1.993962e-05	
13.227271	2.824513e-05	2.881602e-05	6.061268e-05	1.973891e-05	
13.228271	2.829323e-05	2.830026e-05	6.035055e-05	1.952842e-05	
13.229271	2.833856e-05	2.778408e-05	6.009412e-05	1.930858e-05	
13.230271	2.838092e-05	2.726823e-05	5.984317e-05	1.907980e-05	
13.231271	2.842009e-05	2.675345e-05	5.959748e-05	1.884251e-05	
13.232271	2.845586e-05	2.624049e-05	5.935685e-05	1.859712e-05	
13.233271	2.848800e-05	2.573008e-05	5.912108e-05	1.834407e-05	
13.234272	2.851632e-05	2.522297e-05	5.888994e-05	1.808375e-05	
13.235272	2.854058e-05	2.471990e-05	5.866322e-05	1.781661e-05	
13.236272	2.856059e-05	2.422160e-05	5.844072e-05	1.754306e-05	
13.237272	2.857611e-05	2.372883e-05	5.822223e-05	1.726351e-05	
13.238272	2.858696e-05	2.324231e-05	5.800754e-05	1.697840e-05	
13.239272	2.859289e-05	2.276280e-05	5.779643e-05	1.668813e-05	
13.240272	2.859371e-05	2.229103e-05	5.758869e-05	1.639314e-05	
13.241273	2.858920e-05	2.182774e-05	5.738412e-05	1.609384e-05	
13.242273	2.857915e-05	2.137368e-05	5.718250e-05	1.579065e-05	
13.243273	2.856333e-05	2.092959e-05	5.698362e-05	1.548399e-05	
13.244273	2.854154e-05	2.049620e-05	5.678728e-05	1.517429e-05	
13.245273	2.851357e-05	2.007426e-05	5.659325e-05	1.486196e-05	
13.246273	2.847919e-05	1.966451e-05	5.640134e-05	1.454743e-05	
13.247274	2.843820e-05	1.926770e-05	5.621133e-05	1.423111e-05	
13.248274	2.839038e-05	1.888455e-05	5.602301e-05	1.391343e-05	
13.249274	2.833552e-05	1.851582e-05	5.583617e-05	1.359480e-05	
13.250274	2.827340e-05	1.816224e-05	5.565060e-05	1.327566e-05	
13.251274	2.820381e-05	1.782456e-05	5.546608e-05	1.295641e-05	
13.252274	2.812654e-05	1.750352e-05	5.528242e-05	1.263748e-05	
13.253274	2.804136e-05	1.719985e-05	5.509939e-05	1.231928e-05	
13.254275	2.794807e-05	1.691430e-05	5.491678e-05	1.200225e-05	
13.255275	2.784646e-05	1.664761e-05	5.473440e-05	1.168680e-05	
13.256275	2.773630e-05	1.640053e-05	5.455202e-05	1.137335e-05	
13.257275	2.761739e-05	1.617378e-05	5.436944e-05	1.106232e-05	
13.258275	2.748951e-05	1.596812e-05	5.418644e-05	1.075413e-05	
13.259275	2.735245e-05	1.578429e-05	5.400281e-05	1.044921e-05	
13.260275	2.720599e-05	1.562302e-05	5.381835e-05	1.014797e-05	
13.261276	2.704992e-05	1.548506e-05	5.363284e-05	9.850828e-06	
13.262276	2.688402e-05	1.537114e-05	5.344608e-05	9.558216e-06	
13.263276	2.670809e-05	1.528202e-05	5.325784e-05	9.270548e-06	
13.264276	2.652190e-05	1.521843e-05	5.306793e-05	8.988247e-06	
13.265276	2.632524e-05	1.518111e-05	5.287613e-05	8.711732e-06	
13.266276	2.611791e-05	1.517080e-05	5.268223e-05	8.441424e-06	
13.267277	2.589968e-05	1.518824e-05	5.248602e-05	8.177743e-06	
13.268277	2.567034e-05	1.523418e-05	5.228729e-05	7.921111e-06	
13.269277	2.542968e-05	1.530936e-05	5.208583e-05	7.671948e-06	
13.270277	2.517748e-05	1.541452e-05	5.188142e-05	7.430674e-06	
13.271277	2.491352e-05	1.555039e-05	5.167387e-05	7.197711e-06	
13.272277	2.463761e-05	1.571773e-05	5.146295e-05	6.973478e-06	
13.273277	2.434951e-05	1.591726e-05	5.124845e-05	6.758396e-06	
13.274278	2.404902e-05	1.614974e-05	5.103018e-05	6.552886e-06	
13.275278	2.373599e-05	1.641575e-05	5.080793e-05	6.357330e-06	
13.276278	2.341076e-05	1.671465e-05	5.058173e-05	6.171795e-06	
13.277278	2.307392e-05	1.704520e-05	5.035167e-05	5.996195e-06	
13.278278	2.272606e-05	1.740615e-05	5.011788e-05	5.830442e-06	
13.279278	2.236779e-05	1.779625e-05	4.988045e-05	5.674448e-06	
13.280278	2.199968e-05	1.821426e-05	4.963949e-05	5.528126e-06	
13.281279	2.162233e-05	1.865894e-05	4.939511e-05	5.391388e-06	
13.282279	2.123634e-05	1.912903e-05	4.914743e-05	5.264147e-06	
13.283279	2.084230e-05	1.962329e-05	4.889655e-05	5.146316e-06	
13.284279	2.044080e-05	2.014047e-05	4.864257e-05	5.037806e-06	
13.285279	2.003243e-05	2.067933e-05	4.838562e-05	4.938531e-06	
13.286279	1.961779e-05	2.123862e-05	4.812578e-05	4.848403e-06	
13.287280	1.919746e-05	2.181710e-05	4.786318e-05	4.767334e-06	
13.288280	1.877204e-05	2.241350e-05	4.759793e-05	4.695236e-06	
13.289280	1.834213e-05	2.302660e-05	4.733012e-05	4.632024e-06	
13.290280	1.790831e-05	2.365515e-05	4.705987e-05	4.577607e-06	
13.291280	1.747118e-05	2.429789e-05	4.678729e-05	4.531900e-06	
13.292280	1.703133e-05	2.495358e-05	4.651249e-05	4.494815e-06	
13.293280	1.658936e-05	2.562098e-05	4.623557e-05	4.466264e-06	
13.294281	1.614585e-05	2.629883e-05	4.595664e-05	4.446160e-06	
13.295281	1.570140e-05	2.698590e-05	4.567581e-05	4.434415e-06	
13.296281	1.525659e-05	2.768093e-05	4.539319e-05	4.430942e-06	
13.297281	1.481204e-05	2.838268e-05	4.510889e-05	4.435653e-06	
13.298281	1.436831e-05	2.908990e-05	4.482302e-05	4.448460e-06	
13.299281	1.392602e-05	2.980135e-05	4.453568e-05	4.469277e-06	
13.300281	1.348575e-05	3.051577e-05	4.424699e-05	4.498015e-06	
13.301282	1.304809e-05	3.123193e-05	4.395705e-05	4.534587e-06	
13.302282	1.261363e-05	3.194858e-05	4.366596e-05	4.578906e-06	
13.303282	1.218298e-05	3.266446e-05	4.337385e-05	4.630884e-06	
13.304282	1.175671e-05	3.337834e-05	4.308081e-05	4.690433e-06	
13.305282	1.133543e-05	3.408896e-05	4.278696e-05	4.757467e-06	
13.306282	1.091973e-05	3.479509e-05	4.249240e-05	4.831897e-06	
13.307283	1.051019e-05	3.549547e-05	4.219725e-05	4.913636e-06	
13.308283	1.010742e-05	3.618885e-05	4.190161e-05	5.002597e-06	
13.309283	9.711995e-06	3.687400e-05	4.160558e-05	5.098691e-06	
13.310283	9.324520e-06	3.754966e-05	4.130928e-05	5.201832e-06	
13.311283	8.945585e-06	3.821459e-05	4.101282e-05	5.311932e-06	
13.312283	8.575780e-06	3.886754e-05	4.071631e-05	5.428903e-06	
13.313283	8.215700e-06	3.950727e-05	4.041984e-05	5.552659e-06	
13.314284	7.865935e-06	4.013252e-05	4.012354e-05	5.683110e-06	
13.315284	7.527080e-06	4.074206e-05	3.982751e-05	5.820171e-06	
13.316284	7.199727e-06	4.133463e-05	3.953186e-05	5.963753e-06	
13.317284	6.884468e-06	4.190899e-05	3.923669e-05	6.113769e-06	
13.318284	6.581895e-06	4.246390e-05	3.894212e-05	6.270131e-06	
13.319284	6.292601e-06	4.299810e-05	3.864825e-05	6.432752e-06	
13.320284	6.017180e-06	4.351035e-05	3.835520e-05	6.601544e-06	
13.321285	5.756222e-06	4.399940e-05	3.806306e-05	6.776420e-06	
13.322285	5.510321e-06	4.446401e-05	3.777195e-05	6.957292e-06	
